time	voltage	cai	inat
0.000000	-65.000000	0.000005	-0.000003
0.025000	-66.550982	0.000012	-0.000003
0.050000	-67.631502	0.000013	-0.000001
0.075000	-68.406886	0.000013	-0.000001
0.100000	-68.964554	0.000012	-0.000001
0.125000	-69.365983	0.000011	-0.000000
0.150000	-69.655100	0.000010	-0.000000
0.175000	-69.863557	0.000009	-0.000000
0.200000	-70.014075	0.000009	-0.000000
0.225000	-70.122928	0.000009	-0.000000
0.250000	-70.201769	0.000008	-0.000000
0.275000	-70.258963	0.000008	-0.000000
0.300000	-70.300520	0.000008	-0.000000
0.325000	-70.330759	0.000008	-0.000000
0.350000	-70.352793	0.000008	-0.000000
0.375000	-70.368868	0.000008	-0.000000
0.400000	-70.380611	0.000008	-0.000000
0.425000	-70.389198	0.000008	-0.000000
0.450000	-70.395485	0.000008	-0.000000
0.475000	-70.400096	0.000008	-0.000000
0.500000	-70.403484	0.000008	-0.000000
0.525000	-70.405983	0.000008	-0.000000
0.550000	-70.407836	0.000008	-0.000000
0.575000	-70.409221	0.000008	-0.000000
0.600000	-70.410269	0.000008	-0.000000
0.625000	-70.411077	0.000008	-0.000000
0.650000	-70.411715	0.000008	-0.000000
0.675000	-70.412234	0.000008	-0.000000
0.700000	-70.412672	0.000008	-0.000000
0.725000	-70.413057	0.000008	-0.000000
0.750000	-70.413408	0.000008	-0.000000
0.775000	-70.413739	0.000008	-0.000000
0.800000	-70.414060	0.000008	-0.000000
0.825000	-70.414377	0.000008	-0.000000
0.850000	-70.414695	0.000008	-0.000000
0.875000	-70.415016	0.000008	-0.000000
0.900000	-70.415340	0.000008	-0.000000
0.925000	-70.415670	0.000008	-0.000000
0.950000	-70.416004	0.000008	-0.000000
0.975000	-70.416342	0.000008	-0.000000
1.000000	-70.416683	0.000008	-0.000000
1.025000	-70.417026	0.000008	-0.000000
1.050000	-70.417370	0.000008	-0.000000
1.075000	-70.417714	0.000008	-0.000000
1.100000	-70.418055	0.000008	-0.000000
1.125000	-70.418395	0.000008	-0.000000
1.150000	-70.418730	0.000008	-0.000000
1.175000	-70.419061	0.000008	-0.000000
1.200000	-70.419386	0.000008	-0.000000
1.225000	-70.419706	0.000008	-0.000000
1.250000	-70.420018	0.000008	-0.000000
1.275000	-70.420322	0.000008	-0.000000
1.300000	-70.420619	0.000008	-0.000000
1.325000	-70.420907	0.000008	-0.000000
1.350000	-70.421187	0.000008	-0.000000
1.375000	-70.421457	0.000008	-0.000000
1.400000	-70.421719	0.000008	-0.000000
1.425000	-70.421971	0.000008	-0.000000
1.450000	-70.422214	0.000008	-0.000000
1.475000	-70.422447	0.000008	-0.000000
1.500000	-70.422672	0.000008	-0.000000
1.525000	-70.422887	0.000008	-0.000000
1.550000	-70.423093	0.000008	-0.000000
1.575000	-70.423289	0.000008	-0.000000
1.600000	-70.423478	0.000008	-0.000000
1.625000	-70.423657	0.000008	-0.000000
1.650000	-70.423828	0.000008	-0.000000
1.675000	-70.423991	0.000008	-0.000000
1.700000	-70.424146	0.000008	-0.000000
1.725000	-70.424293	0.000008	-0.000000
1.750000	-70.424433	0.000008	-0.000000
1.775000	-70.424565	0.000008	-0.000000
1.800000	-70.424690	0.000008	-0.000000
1.825000	-70.424809	0.000008	-0.000000
1.850000	-70.424921	0.000008	-0.000000
1.875000	-70.425027	0.000008	-0.000000
1.900000	-70.425127	0.000008	-0.000000
1.925000	-70.425221	0.000008	-0.000000
1.950000	-70.425310	0.000008	-0.000000
1.975000	-70.425394	0.000008	-0.000000
2.000000	-70.425472	0.000008	-0.000000
2.025000	-70.425546	0.000008	-0.000000
2.050000	-70.425615	0.000008	-0.000000
2.075000	-70.425679	0.000008	-0.000000
2.100000	-70.425740	0.000008	-0.000000
2.125000	-70.425796	0.000008	-0.000000
2.150000	-70.425849	0.000008	-0.000000
2.175000	-70.425898	0.000008	-0.000000
2.200000	-70.425944	0.000008	-0.000000
2.225000	-70.425986	0.000008	-0.000000
2.250000	-70.426025	0.000008	-0.000000
2.275000	-70.426026	0.000008	-0.000000
2.300000	-70.426026	0.000008	-0.000000
2.325000	-70.426027	0.000008	-0.000000
2.350000	-70.426027	0.000008	-0.000000
2.375000	-70.426027	0.000008	-0.000000
2.400000	-70.426028	0.000008	-0.000000
2.425000	-70.426028	0.000008	-0.000000
2.450000	-70.426028	0.000008	-0.000000
2.475000	-70.426029	0.000008	-0.000000
2.500000	-70.426029	0.000008	-0.000000
2.525000	-70.426029	0.000008	-0.000000
2.550000	-70.426029	0.000008	-0.000000
2.575000	-70.426030	0.000008	-0.000000
2.600000	-70.426030	0.000008	-0.000000
2.625000	-70.426030	0.000008	-0.000000
2.650000	-70.426030	0.000008	-0.000000
2.675000	-70.426031	0.000008	-0.000000
2.700000	-70.426031	0.000008	-0.000000
2.725000	-70.426031	0.000008	-0.000000
2.750000	-70.426031	0.000008	-0.000000
2.775000	-70.426031	0.000008	-0.000000
2.800000	-70.426032	0.000008	-0.000000
2.825000	-70.426032	0.000008	-0.000000
2.850000	-70.426032	0.000008	-0.000000
2.875000	-70.426032	0.000008	-0.000000
2.900000	-70.426032	0.000008	-0.000000
2.925000	-70.426033	0.000008	-0.000000
2.950000	-70.426033	0.000008	-0.000000
2.975000	-70.426033	0.000008	-0.000000
3.000000	-70.426033	0.000008	-0.000000
3.025000	-70.426033	0.000008	-0.000000
3.050000	-70.426033	0.000008	-0.000000
3.075000	-70.426034	0.000008	-0.000000
3.100000	-70.426034	0.000008	-0.000000
3.125000	-70.426034	0.000008	-0.000000
3.150000	-70.426034	0.000008	-0.000000
3.175000	-70.426034	0.000008	-0.000000
3.200000	-70.426034	0.000008	-0.000000
3.225000	-70.426035	0.000008	-0.000000
3.250000	-70.426035	0.000008	-0.000000
3.275000	-70.426035	0.000008	-0.000000
3.300000	-70.426035	0.000008	-0.000000
3.325000	-70.426035	0.000008	-0.000000
3.350000	-70.426035	0.000008	-0.000000
3.375000	-70.426035	0.000008	-0.000000
3.400000	-70.426036	0.000008	-0.000000
3.425000	-70.426036	0.000008	-0.000000
3.450000	-70.426036	0.000008	-0.000000
3.475000	-70.426036	0.000008	-0.000000
3.500000	-70.426036	0.000008	-0.000000
3.525000	-70.426036	0.000008	-0.000000
3.550000	-70.426036	0.000008	-0.000000
3.575000	-70.426037	0.000008	-0.000000
3.600000	-70.426037	0.000008	-0.000000
3.625000	-70.426037	0.000008	-0.000000
3.650000	-70.426037	0.000008	-0.000000
3.675000	-70.426037	0.000008	-0.000000
3.700000	-70.426037	0.000008	-0.000000
3.725000	-70.426037	0.000008	-0.000000
3.750000	-70.426038	0.000008	-0.000000
3.775000	-70.426038	0.000008	-0.000000
3.800000	-70.426038	0.000008	-0.000000
3.825000	-70.426038	0.000008	-0.000000
3.850000	-70.426038	0.000008	-0.000000
3.875000	-70.426038	0.000008	-0.000000
3.900000	-70.426038	0.000008	-0.000000
3.925000	-70.426039	0.000008	-0.000000
3.950000	-70.426039	0.000008	-0.000000
3.975000	-70.426039	0.000008	-0.000000
4.000000	-70.426039	0.000008	-0.000000
4.025000	-70.426039	0.000008	-0.000000
4.050000	-70.426039	0.000008	-0.000000
4.075000	-70.426039	0.000008	-0.000000
4.100000	-70.426040	0.000008	-0.000000
4.125000	-70.426040	0.000008	-0.000000
4.150000	-70.426040	0.000008	-0.000000
4.175000	-70.426040	0.000008	-0.000000
4.200000	-70.426040	0.000008	-0.000000
4.225000	-70.426040	0.000008	-0.000000
4.250000	-70.426040	0.000008	-0.000000
4.275000	-70.426040	0.000008	-0.000000
4.300000	-70.426041	0.000008	-0.000000
4.325000	-70.426041	0.000008	-0.000000
4.350000	-70.426041	0.000008	-0.000000
4.375000	-70.426041	0.000008	-0.000000
4.400000	-70.426041	0.000008	-0.000000
4.425000	-70.426041	0.000008	-0.000000
4.450000	-70.426041	0.000008	-0.000000
4.475000	-70.426042	0.000008	-0.000000
4.500000	-70.426042	0.000008	-0.000000
4.525000	-70.426042	0.000008	-0.000000
4.550000	-70.426042	0.000008	-0.000000
4.575000	-70.426042	0.000008	-0.000000
4.600000	-70.426042	0.000008	-0.000000
4.625000	-70.426042	0.000008	-0.000000
4.650000	-70.426042	0.000008	-0.000000
4.675000	-70.426043	0.000008	-0.000000
4.700000	-70.426043	0.000008	-0.000000
4.725000	-70.426043	0.000008	-0.000000
4.750000	-70.426043	0.000008	-0.000000
4.775000	-70.426043	0.000008	-0.000000
4.800000	-70.426043	0.000008	-0.000000
4.825000	-70.426043	0.000008	-0.000000
4.850000	-70.426043	0.000008	-0.000000
4.875000	-70.426044	0.000008	-0.000000
4.900000	-70.426044	0.000008	-0.000000
4.925000	-70.426044	0.000008	-0.000000
4.950000	-70.426044	0.000008	-0.000000
4.975000	-70.426044	0.000008	-0.000000
5.000000	-70.426044	0.000008	-0.000000
5.025000	-70.426044	0.000008	-0.000000
5.050000	-70.426044	0.000008	-0.000000
5.075000	-70.426045	0.000008	-0.000000
5.100000	-70.426045	0.000008	-0.000000
5.125000	-70.426045	0.000008	-0.000000
5.150000	-70.426045	0.000008	-0.000000
5.175000	-70.426045	0.000008	-0.000000
5.200000	-70.426045	0.000008	-0.000000
5.225000	-70.426045	0.000008	-0.000000
5.250000	-70.426045	0.000008	-0.000000
5.275000	-70.426046	0.000008	-0.000000
5.300000	-70.426046	0.000008	-0.000000
5.325000	-70.426046	0.000008	-0.000000
5.350000	-70.426046	0.000008	-0.000000
5.375000	-70.426046	0.000008	-0.000000
5.400000	-70.426046	0.000008	-0.000000
5.425000	-70.426046	0.000008	-0.000000
5.450000	-70.426046	0.000008	-0.000000
5.475000	-70.426046	0.000008	-0.000000
5.500000	-70.426047	0.000008	-0.000000
5.525000	-70.426047	0.000008	-0.000000
5.550000	-70.426047	0.000008	-0.000000
5.575000	-70.426047	0.000008	-0.000000
5.600000	-70.426047	0.000008	-0.000000
5.625000	-70.426047	0.000008	-0.000000
5.650000	-70.426047	0.000008	-0.000000
5.675000	-70.426047	0.000008	-0.000000
5.700000	-70.426048	0.000008	-0.000000
5.725000	-70.426048	0.000008	-0.000000
5.750000	-70.426048	0.000008	-0.000000
5.775000	-70.426048	0.000008	-0.000000
5.800000	-70.426048	0.000008	-0.000000
5.825000	-70.426048	0.000008	-0.000000
5.850000	-70.426048	0.000008	-0.000000
5.875000	-70.426048	0.000008	-0.000000
5.900000	-70.426048	0.000008	-0.000000
5.925000	-70.426049	0.000008	-0.000000
5.950000	-70.426049	0.000008	-0.000000
5.975000	-70.426049	0.000008	-0.000000
6.000000	-70.426049	0.000008	-0.000000
6.025000	-70.426049	0.000008	-0.000000
6.050000	-70.426049	0.000008	-0.000000
6.075000	-70.426049	0.000008	-0.000000
6.100000	-70.426049	0.000008	-0.000000
6.125000	-70.426050	0.000008	-0.000000
6.150000	-70.426050	0.000008	-0.000000
6.175000	-70.426050	0.000008	-0.000000
6.200000	-70.426050	0.000008	-0.000000
6.225000	-70.426050	0.000008	-0.000000
6.250000	-70.426050	0.000008	-0.000000
6.275000	-70.426050	0.000008	-0.000000
6.300000	-70.426050	0.000008	-0.000000
6.325000	-70.426050	0.000008	-0.000000
6.350000	-70.426051	0.000008	-0.000000
6.375000	-70.426051	0.000008	-0.000000
6.400000	-70.426051	0.000008	-0.000000
6.425000	-70.426051	0.000008	-0.000000
6.450000	-70.426051	0.000008	-0.000000
6.475000	-70.426051	0.000008	-0.000000
6.500000	-70.426051	0.000008	-0.000000
6.525000	-70.426051	0.000008	-0.000000
6.550000	-70.426051	0.000008	-0.000000
6.575000	-70.426052	0.000008	-0.000000
6.600000	-70.426052	0.000008	-0.000000
6.625000	-70.426052	0.000008	-0.000000
6.650000	-70.426052	0.000008	-0.000000
6.675000	-70.426052	0.000008	-0.000000
6.700000	-70.426052	0.000008	-0.000000
6.725000	-70.426052	0.000008	-0.000000
6.750000	-70.426052	0.000008	-0.000000
6.775000	-70.426053	0.000008	-0.000000
6.800000	-70.426053	0.000008	-0.000000
6.825000	-70.426053	0.000008	-0.000000
6.850000	-70.426053	0.000008	-0.000000
6.875000	-70.426053	0.000008	-0.000000
6.900000	-70.426053	0.000008	-0.000000
6.925000	-70.426053	0.000008	-0.000000
6.950000	-70.426053	0.000008	-0.000000
6.975000	-70.426053	0.000008	-0.000000
7.000000	-70.426054	0.000008	-0.000000
7.025000	-70.426054	0.000008	-0.000000
7.050000	-70.426054	0.000008	-0.000000
7.075000	-70.426054	0.000008	-0.000000
7.100000	-70.426054	0.000008	-0.000000
7.125000	-70.426054	0.000008	-0.000000
7.150000	-70.426054	0.000008	-0.000000
7.175000	-70.426054	0.000008	-0.000000
7.200000	-70.426054	0.000008	-0.000000
7.225000	-70.426055	0.000008	-0.000000
7.250000	-70.426055	0.000008	-0.000000
7.275000	-70.426055	0.000008	-0.000000
7.300000	-70.426055	0.000008	-0.000000
7.325000	-70.426055	0.000008	-0.000000
7.350000	-70.426055	0.000008	-0.000000
7.375000	-70.426055	0.000008	-0.000000
7.400000	-70.426055	0.000008	-0.000000
7.425000	-70.426055	0.000008	-0.000000
7.450000	-70.426056	0.000008	-0.000000
7.475000	-70.426056	0.000008	-0.000000
7.500000	-70.426056	0.000008	-0.000000
7.525000	-70.426056	0.000008	-0.000000
7.550000	-70.426056	0.000008	-0.000000
7.575000	-70.426056	0.000008	-0.000000
7.600000	-70.426056	0.000008	-0.000000
7.625000	-70.426056	0.000008	-0.000000
7.650000	-70.426056	0.000008	-0.000000
7.675000	-70.426057	0.000008	-0.000000
7.700000	-70.426057	0.000008	-0.000000
7.725000	-70.426057	0.000008	-0.000000
7.750000	-70.426057	0.000008	-0.000000
7.775000	-70.426057	0.000008	-0.000000
7.800000	-70.426057	0.000008	-0.000000
7.825000	-70.426057	0.000008	-0.000000
7.850000	-70.426057	0.000008	-0.000000
7.875000	-70.426057	0.000008	-0.000000
7.900000	-70.426058	0.000008	-0.000000
7.925000	-70.426058	0.000008	-0.000000
7.950000	-70.426058	0.000008	-0.000000
7.975000	-70.426058	0.000008	-0.000000
8.000000	-70.426058	0.000008	-0.000000
8.025000	-70.426058	0.000008	-0.000000
8.050000	-70.426058	0.000008	-0.000000
8.075000	-70.426058	0.000008	-0.000000
8.100000	-70.426058	0.000008	-0.000000
8.125000	-70.426059	0.000008	-0.000000
8.150000	-70.426059	0.000008	-0.000000
8.175000	-70.426059	0.000008	-0.000000
8.200000	-70.426059	0.000008	-0.000000
8.225000	-70.426059	0.000008	-0.000000
8.250000	-70.426059	0.000008	-0.000000
8.275000	-70.426059	0.000008	-0.000000
8.300000	-70.426059	0.000008	-0.000000
8.325000	-70.426059	0.000008	-0.000000
8.350000	-70.426060	0.000008	-0.000000
8.375000	-70.426060	0.000008	-0.000000
8.400000	-70.426060	0.000008	-0.000000
8.425000	-70.426060	0.000008	-0.000000
8.450000	-70.426060	0.000008	-0.000000
8.475000	-70.426060	0.000008	-0.000000
8.500000	-70.426060	0.000008	-0.000000
8.525000	-70.426060	0.000008	-0.000000
8.550000	-70.426060	0.000008	-0.000000
8.575000	-70.426061	0.000008	-0.000000
8.600000	-70.426061	0.000008	-0.000000
8.625000	-70.426061	0.000008	-0.000000
8.650000	-70.426061	0.000008	-0.000000
8.675000	-70.426061	0.000008	-0.000000
8.700000	-70.426061	0.000008	-0.000000
8.725000	-70.426061	0.000008	-0.000000
8.750000	-70.426061	0.000008	-0.000000
8.775000	-70.426061	0.000008	-0.000000
8.800000	-70.426062	0.000008	-0.000000
8.825000	-70.426062	0.000008	-0.000000
8.850000	-70.426062	0.000008	-0.000000
8.875000	-70.426062	0.000008	-0.000000
8.900000	-70.426062	0.000008	-0.000000
8.925000	-70.426062	0.000008	-0.000000
8.950000	-70.426062	0.000008	-0.000000
8.975000	-70.426062	0.000008	-0.000000
9.000000	-70.426062	0.000008	-0.000000
9.025000	-70.426063	0.000008	-0.000000
9.050000	-70.426063	0.000008	-0.000000
9.075000	-70.426063	0.000008	-0.000000
9.100000	-70.426063	0.000008	-0.000000
9.125000	-70.426063	0.000008	-0.000000
9.150000	-70.426063	0.000008	-0.000000
9.175000	-70.426063	0.000008	-0.000000
9.200000	-70.426063	0.000008	-0.000000
9.225000	-70.426063	0.000008	-0.000000
9.250000	-70.426063	0.000008	-0.000000
9.275000	-70.426064	0.000008	-0.000000
9.300000	-70.426064	0.000008	-0.000000
9.325000	-70.426064	0.000008	-0.000000
9.350000	-70.426064	0.000008	-0.000000
9.375000	-70.426064	0.000008	-0.000000
9.400000	-70.426064	0.000008	-0.000000
9.425000	-70.426064	0.000008	-0.000000
9.450000	-70.426064	0.000008	-0.000000
9.475000	-70.426064	0.000008	-0.000000
9.500000	-70.426065	0.000008	-0.000000
9.525000	-70.426065	0.000008	-0.000000
9.550000	-70.426065	0.000008	-0.000000
9.575000	-70.426065	0.000008	-0.000000
9.600000	-70.426065	0.000008	-0.000000
9.625000	-70.426065	0.000008	-0.000000
9.650000	-70.426065	0.000008	-0.000000
9.675000	-70.426065	0.000008	-0.000000
9.700000	-70.426065	0.000008	-0.000000
9.725000	-70.426066	0.000008	-0.000000
9.750000	-70.426066	0.000008	-0.000000
9.775000	-70.426066	0.000008	-0.000000
9.800000	-70.426066	0.000008	-0.000000
9.825000	-70.426066	0.000008	-0.000000
9.850000	-70.426066	0.000008	-0.000000
9.875000	-70.426066	0.000008	-0.000000
9.900000	-70.426066	0.000008	-0.000000
9.925000	-70.426066	0.000008	-0.000000
9.950000	-70.426066	0.000008	-0.000000
9.975000	-70.426067	0.000008	-0.000000
10.000000	-70.426067	0.000008	-0.000000
10.025000	-70.426067	0.000008	-0.000000
10.050000	-70.426067	0.000008	-0.000000
10.075000	-70.426067	0.000008	-0.000000
10.100000	-70.426067	0.000008	-0.000000
10.125000	-70.426067	0.000008	-0.000000
10.150000	-70.426067	0.000008	-0.000000
10.175000	-70.426067	0.000008	-0.000000
10.200000	-70.426068	0.000008	-0.000000
10.225000	-70.426068	0.000008	-0.000000
10.250000	-70.426068	0.000008	-0.000000
10.275000	-70.426068	0.000008	-0.000000
10.300000	-70.426068	0.000008	-0.000000
10.325000	-70.426067	0.000008	-0.000000
10.350000	-70.426063	0.000008	-0.000000
10.375000	-70.426050	0.000008	-0.000000
10.400000	-70.426018	0.000008	-0.000000
10.425000	-70.425952	0.000008	-0.000000
10.450000	-70.425832	0.000008	-0.000000
10.475000	-70.425631	0.000008	-0.000000
10.500000	-70.425315	0.000008	-0.000000
10.525000	-70.424846	0.000008	-0.000000
10.550000	-70.424179	0.000008	-0.000000
10.575000	-70.423262	0.000008	-0.000000
10.600000	-70.422041	0.000008	-0.000000
10.625000	-70.420452	0.000008	-0.000000
10.650000	-70.418432	0.000008	-0.000000
10.675000	-70.415910	0.000008	-0.000000
10.700000	-70.412812	0.000008	-0.000000
10.725000	-70.409063	0.000008	-0.000000
10.750000	-70.404584	0.000008	-0.000000
10.775000	-70.399294	0.000008	-0.000000
10.800000	-70.393111	0.000008	-0.000000
10.825000	-70.385952	0.000008	-0.000000
10.850000	-70.377732	0.000008	-0.000000
10.875000	-70.368369	0.000008	-0.000000
10.900000	-70.357777	0.000008	-0.000000
10.925000	-70.345876	0.000008	-0.000000
10.950000	-70.332582	0.000008	-0.000000
10.975000	-70.317815	0.000008	-0.000000
11.000000	-70.301498	0.000008	-0.000000
11.025000	-70.283552	0.000008	-0.000000
11.050000	-70.263904	0.000008	-0.000000
11.075000	-70.242482	0.000008	-0.000000
11.100000	-70.219217	0.000008	-0.000000
11.125000	-70.194042	0.000008	-0.000000
11.150000	-70.166894	0.000008	-0.000000
11.175000	-70.137714	0.000008	-0.000000
11.200000	-70.106444	0.000008	-0.000000
11.225000	-70.073030	0.000008	-0.000000
11.250000	-70.037423	0.000008	-0.000000
11.275000	-69.999577	0.000008	-0.000000
11.300000	-69.959449	0.000008	-0.000000
11.325000	-69.916998	0.000008	-0.000000
11.350000	-69.872190	0.000008	-0.000000
11.375000	-69.824991	0.000008	-0.000000
11.400000	-69.775374	0.000008	-0.000000
11.425000	-69.723313	0.000008	-0.000000
11.450000	-69.668786	0.000008	-0.000000
11.475000	-69.611775	0.000008	-0.000000
11.500000	-69.552265	0.000008	-0.000000
11.525000	-69.490245	0.000008	-0.000000
11.550000	-69.425704	0.000008	-0.000000
11.575000	-69.358640	0.000008	-0.000000
11.600000	-69.289048	0.000008	-0.000000
11.625000	-69.216929	0.000008	-0.000000
11.650000	-69.142288	0.000008	-0.000000
11.675000	-69.065129	0.000008	-0.000000
11.700000	-68.985463	0.000008	-0.000000
11.725000	-68.903300	0.000008	-0.000000
11.750000	-68.818655	0.000008	-0.000000
11.775000	-68.731542	0.000008	-0.000000
11.800000	-68.641982	0.000008	-0.000000
11.825000	-68.549994	0.000008	-0.000000
11.850000	-68.455601	0.000008	-0.000000
11.875000	-68.358827	0.000008	-0.000001
11.900000	-68.259700	0.000008	-0.000001
11.925000	-68.158246	0.000008	-0.000001
11.950000	-68.054495	0.000008	-0.000001
11.975000	-67.948480	0.000008	-0.000001
12.000000	-67.840231	0.000008	-0.000001
12.025000	-67.729784	0.000008	-0.000001
12.050000	-67.617172	0.000008	-0.000001
12.075000	-67.502433	0.000008	-0.000001
12.100000	-67.385603	0.000008	-0.000001
12.125000	-67.266721	0.000008	-0.000001
12.150000	-67.145826	0.000008	-0.000001
12.175000	-67.022957	0.000008	-0.000001
12.200000	-66.898155	0.000008	-0.000001
12.225000	-66.771462	0.000008	-0.000001
12.250000	-66.642918	0.000008	-0.000001
12.275000	-66.512565	0.000008	-0.000001
12.300000	-66.380448	0.000008	-0.000001
12.325000	-66.246607	0.000008	-0.000001
12.350000	-66.111087	0.000008	-0.000002
12.375000	-65.973930	0.000008	-0.000002
12.400000	-65.835180	0.000008	-0.000002
12.425000	-65.694881	0.000008	-0.000002
12.450000	-65.553075	0.000008	-0.000002
12.475000	-65.409808	0.000008	-0.000002
12.500000	-65.265121	0.000008	-0.000002
12.525000	-65.119058	0.000008	-0.000002
12.550000	-64.971663	0.000008	-0.000003
12.575000	-64.822978	0.000008	-0.000003
12.600000	-64.673046	0.000008	-0.000003
12.625000	-64.521910	0.000008	-0.000003
12.650000	-64.369611	0.000008	-0.000004
12.675000	-64.216190	0.000008	-0.000004
12.700000	-64.061690	0.000008	-0.000004
