time	voltage	cai	inat
0.000000	-65.000000	0.000004	-0.000007
0.025000	-66.544785	0.000012	-0.000007
0.050000	-67.623921	0.000013	-0.000003
0.075000	-68.399010	0.000012	-0.000002
0.100000	-68.956818	0.000011	-0.000001
0.125000	-69.358562	0.000010	-0.000001
0.150000	-69.648038	0.000009	-0.000001
0.175000	-69.856840	0.000009	-0.000001
0.200000	-70.007667	0.000008	-0.000001
0.225000	-70.116784	0.000008	-0.000001
0.250000	-70.195842	0.000008	-0.000001
0.275000	-70.253212	0.000008	-0.000001
0.300000	-70.294910	0.000008	-0.000001
0.325000	-70.325261	0.000007	-0.000000
0.350000	-70.347383	0.000007	-0.000000
0.375000	-70.363529	0.000007	-0.000000
0.400000	-70.375326	0.000007	-0.000000
0.425000	-70.383956	0.000007	-0.000000
0.450000	-70.390277	0.000007	-0.000000
0.475000	-70.394914	0.000007	-0.000000
0.500000	-70.398323	0.000007	-0.000000
0.525000	-70.400839	0.000007	-0.000000
0.550000	-70.402704	0.000007	-0.000000
0.575000	-70.404099	0.000007	-0.000000
0.600000	-70.405156	0.000007	-0.000000
0.625000	-70.405970	0.000007	-0.000000
0.650000	-70.406613	0.000007	-0.000000
0.675000	-70.407136	0.000007	-0.000000
0.700000	-70.407578	0.000007	-0.000000
0.725000	-70.407966	0.000007	-0.000000
0.750000	-70.408319	0.000007	-0.000000
0.775000	-70.408652	0.000007	-0.000000
0.800000	-70.408975	0.000007	-0.000000
0.825000	-70.409293	0.000007	-0.000000
0.850000	-70.409612	0.000007	-0.000000
0.875000	-70.409934	0.000007	-0.000000
0.900000	-70.410260	0.000007	-0.000000
0.925000	-70.410590	0.000007	-0.000000
0.950000	-70.410925	0.000007	-0.000000
0.975000	-70.411264	0.000007	-0.000000
1.000000	-70.411606	0.000007	-0.000000
1.025000	-70.411949	0.000007	-0.000000
1.050000	-70.412293	0.000007	-0.000000
1.075000	-70.412637	0.000007	-0.000000
1.100000	-70.412980	0.000007	-0.000000
1.125000	-70.413319	0.000007	-0.000000
1.150000	-70.413655	0.000007	-0.000000
1.175000	-70.413987	0.000007	-0.000000
1.200000	-70.414312	0.000007	-0.000000
1.225000	-70.414632	0.000007	-0.000000
1.250000	-70.414944	0.000007	-0.000000
1.275000	-70.415249	0.000007	-0.000000
1.300000	-70.415546	0.000007	-0.000000
1.325000	-70.415835	0.000007	-0.000000
1.350000	-70.416115	0.000007	-0.000000
1.375000	-70.416386	0.000007	-0.000000
1.400000	-70.416647	0.000007	-0.000000
1.425000	-70.416900	0.000007	-0.000000
1.450000	-68.857403	0.000007	-0.000000
1.475000	-69.153602	0.000008	-0.000001
1.500000	-69.506693	0.000008	-0.000001
1.525000	-69.767493	0.000008	-0.000001
1.550000	-69.953751	0.000008	-0.000001
1.575000	-70.086751	0.000008	-0.000001
1.600000	-70.181792	0.000008	-0.000001
1.625000	-70.249704	0.000008	-0.000001
1.650000	-70.298217	0.000008	-0.000001
1.675000	-70.332857	0.000007	-0.000000
1.700000	-70.357578	0.000007	-0.000000
1.725000	-70.375211	0.000007	-0.000000
1.750000	-70.387781	0.000007	-0.000000
1.775000	-70.396737	0.000007	-0.000000
1.800000	-70.403115	0.000007	-0.000000
1.825000	-70.407655	0.000007	-0.000000
1.850000	-70.410887	0.000007	-0.000000
1.875000	-70.413188	0.000007	-0.000000
1.900000	-70.414830	0.000007	-0.000000
1.925000	-70.416003	0.000007	-0.000000
1.950000	-70.416846	0.000007	-0.000000
1.975000	-70.417456	0.000007	-0.000000
2.000000	-70.417901	0.000007	-0.000000
2.025000	-70.418232	0.000007	-0.000000
2.050000	-70.418483	0.000007	-0.000000
2.075000	-70.418679	0.000007	-0.000000
2.100000	-70.418836	0.000007	-0.000000
2.125000	-70.418967	0.000007	-0.000000
2.150000	-70.419079	0.000007	-0.000000
2.175000	-70.419179	0.000007	-0.000000
2.200000	-70.419271	0.000007	-0.000000
2.225000	-70.419357	0.000007	-0.000000
2.250000	-70.419439	0.000007	-0.000000
2.275000	-70.419440	0.000007	-0.000000
2.300000	-70.419441	0.000007	-0.000000
2.325000	-70.419441	0.000007	-0.000000
2.350000	-70.419442	0.000007	-0.000000
2.375000	-70.419443	0.000007	-0.000000
2.400000	-70.419443	0.000007	-0.000000
2.425000	-70.419444	0.000007	-0.000000
2.450000	-70.419445	0.000007	-0.000000
2.475000	-70.419445	0.000007	-0.000000
2.500000	-70.419446	0.000007	-0.000000
2.525000	-70.419446	0.000007	-0.000000
2.550000	-70.419447	0.000007	-0.000000
2.575000	-70.419447	0.000007	-0.000000
2.600000	-70.419448	0.000007	-0.000000
2.625000	-70.419448	0.000007	-0.000000
2.650000	-70.419449	0.000007	-0.000000
2.675000	-70.419449	0.000007	-0.000000
2.700000	-70.419450	0.000007	-0.000000
2.725000	-70.419450	0.000007	-0.000000
2.750000	-70.419450	0.000007	-0.000000
2.775000	-70.419451	0.000007	-0.000000
2.800000	-70.419451	0.000007	-0.000000
2.825000	-70.419452	0.000007	-0.000000
2.850000	-70.419452	0.000007	-0.000000
2.875000	-70.419452	0.000007	-0.000000
2.900000	-70.419453	0.000007	-0.000000
2.925000	-70.419453	0.000007	-0.000000
2.950000	-70.419453	0.000007	-0.000000
2.975000	-70.419454	0.000007	-0.000000
3.000000	-70.419454	0.000007	-0.000000
3.025000	-70.419454	0.000007	-0.000000
3.050000	-70.419455	0.000007	-0.000000
3.075000	-70.419455	0.000007	-0.000000
3.100000	-70.419455	0.000007	-0.000000
3.125000	-70.419456	0.000007	-0.000000
3.150000	-70.419456	0.000007	-0.000000
3.175000	-70.419456	0.000007	-0.000000
3.200000	-70.419457	0.000007	-0.000000
3.225000	-70.419457	0.000007	-0.000000
3.250000	-70.419457	0.000007	-0.000000
3.275000	-70.419458	0.000007	-0.000000
3.300000	-70.419458	0.000007	-0.000000
3.325000	-70.419458	0.000007	-0.000000
3.350000	-70.419459	0.000007	-0.000000
3.375000	-70.419459	0.000007	-0.000000
3.400000	-70.419459	0.000007	-0.000000
3.425000	-70.419460	0.000007	-0.000000
3.450000	-70.419460	0.000007	-0.000000
3.475000	-70.419460	0.000007	-0.000000
3.500000	-70.419461	0.000007	-0.000000
3.525000	-70.419461	0.000007	-0.000000
3.550000	-70.419461	0.000007	-0.000000
3.575000	-70.419462	0.000007	-0.000000
3.600000	-70.419462	0.000007	-0.000000
3.625000	-70.419462	0.000007	-0.000000
3.650000	-70.419463	0.000007	-0.000000
3.675000	-70.419463	0.000007	-0.000000
3.700000	-70.419463	0.000007	-0.000000
3.725000	-70.419463	0.000007	-0.000000
3.750000	-70.419464	0.000007	-0.000000
3.775000	-70.419464	0.000007	-0.000000
3.800000	-70.419464	0.000007	-0.000000
3.825000	-70.419465	0.000007	-0.000000
3.850000	-70.419465	0.000007	-0.000000
3.875000	-70.419465	0.000007	-0.000000
3.900000	-70.419466	0.000007	-0.000000
3.925000	-70.419466	0.000007	-0.000000
3.950000	-70.419466	0.000007	-0.000000
3.975000	-70.419466	0.000007	-0.000000
4.000000	-70.419467	0.000007	-0.000000
4.025000	-70.419467	0.000007	-0.000000
4.050000	-70.419467	0.000007	-0.000000
4.075000	-70.419468	0.000007	-0.000000
4.100000	-70.419468	0.000007	-0.000000
4.125000	-70.419468	0.000007	-0.000000
4.150000	-70.419468	0.000007	-0.000000
4.175000	-70.419469	0.000007	-0.000000
4.200000	-70.419469	0.000007	-0.000000
4.225000	-70.419469	0.000007	-0.000000
4.250000	-70.419470	0.000007	-0.000000
4.275000	-70.419470	0.000007	-0.000000
4.300000	-70.419470	0.000007	-0.000000
4.325000	-70.419470	0.000007	-0.000000
4.350000	-70.419471	0.000007	-0.000000
4.375000	-70.419471	0.000007	-0.000000
4.400000	-70.419471	0.000007	-0.000000
4.425000	-70.419472	0.000007	-0.000000
4.450000	-70.419472	0.000007	-0.000000
4.475000	-70.419472	0.000007	-0.000000
4.500000	-70.419472	0.000007	-0.000000
4.525000	-70.419473	0.000007	-0.000000
4.550000	-70.419473	0.000007	-0.000000
4.575000	-70.419473	0.000007	-0.000000
4.600000	-70.419473	0.000007	-0.000000
4.625000	-70.419474	0.000007	-0.000000
4.650000	-70.419474	0.000007	-0.000000
4.675000	-70.419474	0.000007	-0.000000
4.700000	-70.419475	0.000007	-0.000000
4.725000	-70.419475	0.000007	-0.000000
4.750000	-70.419475	0.000007	-0.000000
4.775000	-70.419475	0.000007	-0.000000
4.800000	-70.419476	0.000007	-0.000000
4.825000	-70.419476	0.000007	-0.000000
4.850000	-70.419476	0.000007	-0.000000
4.875000	-70.419476	0.000007	-0.000000
4.900000	-70.419477	0.000007	-0.000000
4.925000	-70.419477	0.000007	-0.000000
4.950000	-70.419477	0.000007	-0.000000
4.975000	-70.419478	0.000007	-0.000000
5.000000	-70.419478	0.000007	-0.000000
5.025000	-70.419478	0.000007	-0.000000
5.050000	-70.419478	0.000007	-0.000000
5.075000	-70.419479	0.000007	-0.000000
5.100000	-70.419479	0.000007	-0.000000
5.125000	-70.419479	0.000007	-0.000000
5.150000	-70.419479	0.000007	-0.000000
5.175000	-70.419480	0.000007	-0.000000
5.200000	-70.419480	0.000007	-0.000000
5.225000	-70.419480	0.000007	-0.000000
5.250000	-70.419480	0.000007	-0.000000
5.275000	-70.419481	0.000007	-0.000000
5.300000	-70.419481	0.000007	-0.000000
5.325000	-70.419481	0.000007	-0.000000
5.350000	-70.419482	0.000007	-0.000000
5.375000	-70.419482	0.000007	-0.000000
5.400000	-70.419482	0.000007	-0.000000
5.425000	-70.419482	0.000007	-0.000000
5.450000	-70.419483	0.000007	-0.000000
5.475000	-70.419483	0.000007	-0.000000
5.500000	-70.419483	0.000007	-0.000000
5.525000	-70.419483	0.000007	-0.000000
5.550000	-70.419484	0.000007	-0.000000
5.575000	-70.419484	0.000007	-0.000000
5.600000	-70.419484	0.000007	-0.000000
5.625000	-70.419484	0.000007	-0.000000
5.650000	-70.419485	0.000007	-0.000000
5.675000	-70.419485	0.000007	-0.000000
5.700000	-70.419485	0.000007	-0.000000
5.725000	-70.419485	0.000007	-0.000000
5.750000	-70.419486	0.000007	-0.000000
5.775000	-70.419486	0.000007	-0.000000
5.800000	-70.419486	0.000007	-0.000000
5.825000	-70.419486	0.000007	-0.000000
5.850000	-70.419487	0.000007	-0.000000
5.875000	-70.419487	0.000007	-0.000000
5.900000	-70.419487	0.000007	-0.000000
5.925000	-70.419487	0.000007	-0.000000
5.950000	-70.419488	0.000007	-0.000000
5.975000	-70.419488	0.000007	-0.000000
6.000000	-70.419488	0.000007	-0.000000
6.025000	-70.419489	0.000007	-0.000000
6.050000	-70.419489	0.000007	-0.000000
6.075000	-70.419489	0.000007	-0.000000
6.100000	-70.419489	0.000007	-0.000000
6.125000	-70.419490	0.000007	-0.000000
6.150000	-70.419490	0.000007	-0.000000
6.175000	-70.419490	0.000007	-0.000000
6.200000	-70.419490	0.000007	-0.000000
6.225000	-70.419491	0.000007	-0.000000
6.250000	-70.419491	0.000007	-0.000000
6.275000	-70.419491	0.000007	-0.000000
6.300000	-70.419491	0.000007	-0.000000
6.325000	-70.419492	0.000007	-0.000000
6.350000	-70.419492	0.000007	-0.000000
6.375000	-70.419492	0.000007	-0.000000
6.400000	-70.419492	0.000007	-0.000000
6.425000	-70.419493	0.000007	-0.000000
6.450000	-70.419493	0.000007	-0.000000
6.475000	-70.419493	0.000007	-0.000000
6.500000	-70.419493	0.000007	-0.000000
6.525000	-70.419494	0.000007	-0.000000
6.550000	-70.419494	0.000007	-0.000000
6.575000	-70.419494	0.000007	-0.000000
6.600000	-70.419494	0.000007	-0.000000
6.625000	-70.419495	0.000007	-0.000000
6.650000	-70.419495	0.000007	-0.000000
6.675000	-70.419495	0.000007	-0.000000
6.700000	-70.419495	0.000007	-0.000000
6.725000	-70.419496	0.000007	-0.000000
6.750000	-70.419496	0.000007	-0.000000
6.775000	-70.419496	0.000007	-0.000000
6.800000	-70.419496	0.000007	-0.000000
6.825000	-70.419497	0.000007	-0.000000
6.850000	-70.419497	0.000007	-0.000000
6.875000	-70.419497	0.000007	-0.000000
6.900000	-70.419497	0.000007	-0.000000
6.925000	-70.419498	0.000007	-0.000000
6.950000	-70.419498	0.000007	-0.000000
6.975000	-70.419498	0.000007	-0.000000
7.000000	-70.419498	0.000007	-0.000000
7.025000	-70.419499	0.000007	-0.000000
7.050000	-70.419499	0.000007	-0.000000
7.075000	-70.419499	0.000007	-0.000000
7.100000	-70.419499	0.000007	-0.000000
7.125000	-70.419500	0.000007	-0.000000
7.150000	-70.419500	0.000007	-0.000000
7.175000	-70.419500	0.000007	-0.000000
7.200000	-70.419500	0.000007	-0.000000
7.225000	-70.419501	0.000007	-0.000000
7.250000	-70.419501	0.000007	-0.000000
7.275000	-70.419501	0.000007	-0.000000
7.300000	-70.419501	0.000007	-0.000000
7.325000	-70.419502	0.000007	-0.000000
7.350000	-70.419502	0.000007	-0.000000
7.375000	-70.419502	0.000007	-0.000000
7.400000	-70.419502	0.000007	-0.000000
7.425000	-70.419503	0.000007	-0.000000
7.450000	-70.419503	0.000007	-0.000000
7.475000	-70.419503	0.000007	-0.000000
7.500000	-70.419503	0.000007	-0.000000
7.525000	-70.419504	0.000007	-0.000000
7.550000	-70.419504	0.000007	-0.000000
7.575000	-70.419504	0.000007	-0.000000
7.600000	-70.419504	0.000007	-0.000000
7.625000	-70.419505	0.000007	-0.000000
7.650000	-70.419505	0.000007	-0.000000
7.675000	-70.419505	0.000007	-0.000000
7.700000	-70.419505	0.000007	-0.000000
7.725000	-70.419506	0.000007	-0.000000
7.750000	-70.419506	0.000007	-0.000000
7.775000	-70.419506	0.000007	-0.000000
7.800000	-70.419506	0.000007	-0.000000
7.825000	-70.419507	0.000007	-0.000000
7.850000	-70.419507	0.000007	-0.000000
7.875000	-70.419507	0.000007	-0.000000
7.900000	-70.419507	0.000007	-0.000000
7.925000	-70.419508	0.000007	-0.000000
7.950000	-70.419508	0.000007	-0.000000
7.975000	-70.419508	0.000007	-0.000000
8.000000	-70.419508	0.000007	-0.000000
8.025000	-70.419509	0.000007	-0.000000
8.050000	-70.419509	0.000007	-0.000000
8.075000	-70.419509	0.000007	-0.000000
8.100000	-70.419509	0.000007	-0.000000
8.125000	-70.419510	0.000007	-0.000000
8.150000	-70.419510	0.000007	-0.000000
8.175000	-70.419510	0.000007	-0.000000
8.200000	-70.419510	0.000007	-0.000000
8.225000	-70.419511	0.000007	-0.000000
8.250000	-70.419511	0.000007	-0.000000
8.275000	-70.419511	0.000007	-0.000000
8.300000	-70.419511	0.000007	-0.000000
8.325000	-70.419512	0.000007	-0.000000
8.350000	-70.419512	0.000007	-0.000000
8.375000	-70.419512	0.000007	-0.000000
8.400000	-70.419512	0.000007	-0.000000
8.425000	-70.419513	0.000007	-0.000000
8.450000	-70.419513	0.000007	-0.000000
8.475000	-70.419513	0.000007	-0.000000
8.500000	-70.419513	0.000007	-0.000000
8.525000	-70.419514	0.000007	-0.000000
8.550000	-70.419514	0.000007	-0.000000
8.575000	-70.419514	0.000007	-0.000000
8.600000	-70.419514	0.000007	-0.000000
8.625000	-70.419514	0.000007	-0.000000
8.650000	-70.419515	0.000007	-0.000000
8.675000	-70.419515	0.000007	-0.000000
8.700000	-70.419515	0.000007	-0.000000
8.725000	-70.419515	0.000007	-0.000000
8.750000	-70.419516	0.000007	-0.000000
8.775000	-70.419516	0.000007	-0.000000
8.800000	-70.419516	0.000007	-0.000000
8.825000	-70.419516	0.000007	-0.000000
8.850000	-70.419517	0.000007	-0.000000
8.875000	-70.419517	0.000007	-0.000000
8.900000	-70.419517	0.000007	-0.000000
8.925000	-70.419517	0.000007	-0.000000
8.950000	-70.419518	0.000007	-0.000000
8.975000	-70.419518	0.000007	-0.000000
9.000000	-70.419518	0.000007	-0.000000
9.025000	-70.419518	0.000007	-0.000000
9.050000	-70.419519	0.000007	-0.000000
9.075000	-70.419519	0.000007	-0.000000
9.100000	-70.419519	0.000007	-0.000000
9.125000	-70.419519	0.000007	-0.000000
9.150000	-70.419520	0.000007	-0.000000
9.175000	-70.419520	0.000007	-0.000000
9.200000	-70.419520	0.000007	-0.000000
9.225000	-70.419520	0.000007	-0.000000
9.250000	-70.419521	0.000007	-0.000000
9.275000	-70.419521	0.000007	-0.000000
9.300000	-70.419521	0.000007	-0.000000
9.325000	-70.419521	0.000007	-0.000000
9.350000	-70.419522	0.000007	-0.000000
9.375000	-70.419522	0.000007	-0.000000
9.400000	-70.419522	0.000007	-0.000000
9.425000	-70.419522	0.000007	-0.000000
9.450000	-70.419523	0.000007	-0.000000
9.475000	-70.419523	0.000007	-0.000000
9.500000	-70.419523	0.000007	-0.000000
9.525000	-70.419523	0.000007	-0.000000
9.550000	-70.419523	0.000007	-0.000000
9.575000	-70.419524	0.000007	-0.000000
9.600000	-70.419524	0.000007	-0.000000
9.625000	-70.419524	0.000007	-0.000000
9.650000	-70.419524	0.000007	-0.000000
9.675000	-70.419525	0.000007	-0.000000
9.700000	-70.419525	0.000007	-0.000000
9.725000	-70.419525	0.000007	-0.000000
9.750000	-70.419525	0.000007	-0.000000
9.775000	-70.419526	0.000007	-0.000000
9.800000	-70.419526	0.000007	-0.000000
9.825000	-70.419526	0.000007	-0.000000
9.850000	-70.419526	0.000007	-0.000000
9.875000	-70.419527	0.000007	-0.000000
9.900000	-70.419527	0.000007	-0.000000
9.925000	-70.419527	0.000007	-0.000000
9.950000	-70.419527	0.000007	-0.000000
9.975000	-70.419528	0.000007	-0.000000
10.000000	-70.419528	0.000007	-0.000000
10.025000	-70.419528	0.000007	-0.000000
10.050000	-70.419528	0.000007	-0.000000
10.075000	-70.419529	0.000007	-0.000000
10.100000	-70.419529	0.000007	-0.000000
10.125000	-70.419529	0.000007	-0.000000
10.150000	-70.419529	0.000007	-0.000000
10.175000	-70.419529	0.000007	-0.000000
10.200000	-70.419530	0.000007	-0.000000
10.225000	-70.419530	0.000007	-0.000000
10.250000	-70.419530	0.000007	-0.000000
10.275000	-70.419530	0.000007	-0.000000
10.300000	-70.419531	0.000007	-0.000000
10.325000	-70.419530	0.000007	-0.000000
10.350000	-70.419526	0.000007	-0.000000
10.375000	-70.419513	0.000007	-0.000000
10.400000	-70.419481	0.000007	-0.000000
10.425000	-70.419416	0.000007	-0.000000
10.450000	-70.419295	0.000007	-0.000000
10.475000	-70.419094	0.000007	-0.000000
10.500000	-70.418779	0.000007	-0.000000
10.525000	-70.418310	0.000007	-0.000000
10.550000	-70.417643	0.000007	-0.000000
10.575000	-70.416727	0.000007	-0.000000
10.600000	-70.415505	0.000007	-0.000000
10.625000	-70.413917	0.000007	-0.000000
10.650000	-70.411897	0.000007	-0.000000
10.675000	-70.409375	0.000007	-0.000000
10.700000	-70.406278	0.000007	-0.000000
10.725000	-70.402530	0.000007	-0.000000
10.750000	-70.398051	0.000007	-0.000000
10.775000	-70.392762	0.000007	-0.000000
10.800000	-70.386579	0.000007	-0.000000
10.825000	-70.379420	0.000007	-0.000000
10.850000	-70.371202	0.000007	-0.000000
10.875000	-70.361839	0.000007	-0.000000
10.900000	-70.351249	0.000007	-0.000000
10.925000	-70.339348	0.000007	-0.000000
10.950000	-70.326055	0.000007	-0.000000
10.975000	-70.311290	0.000007	-0.000000
11.000000	-70.294974	0.000007	-0.000000
11.025000	-70.277029	0.000007	-0.000000
11.050000	-70.257383	0.000007	-0.000000
11.075000	-70.235963	0.000007	-0.000000
11.100000	-70.212699	0.000007	-0.000000
11.125000	-70.187526	0.000007	-0.000001
11.150000	-70.160380	0.000007	-0.000001
11.175000	-70.131202	0.000007	-0.000001
11.200000	-70.099934	0.000007	-0.000001
11.225000	-70.066523	0.000007	-0.000001
11.250000	-70.030918	0.000007	-0.000001
11.275000	-69.993075	0.000007	-0.000001
11.300000	-69.952949	0.000007	-0.000001
11.325000	-69.910501	0.000007	-0.000001
11.350000	-69.865695	0.000007	-0.000001
11.375000	-69.818499	0.000007	-0.000001
11.400000	-69.768885	0.000007	-0.000001
11.425000	-69.716827	0.000007	-0.000001
11.450000	-69.662303	0.000007	-0.000001
11.475000	-69.605296	0.000007	-0.000001
11.500000	-69.545789	0.000007	-0.000001
11.525000	-69.483771	0.000007	-0.000001
11.550000	-69.419234	0.000007	-0.000001
11.575000	-69.352172	0.000007	-0.000001
11.600000	-69.282583	0.000007	-0.000001
11.625000	-69.210468	0.000007	-0.000001
11.650000	-69.135830	0.000007	-0.000001
11.675000	-69.058674	0.000007	-0.000001
11.700000	-68.979011	0.000007	-0.000001
11.725000	-68.896851	0.000007	-0.000001
11.750000	-68.812208	0.000007	-0.000001
11.775000	-68.725098	0.000007	-0.000001
11.800000	-68.635540	0.000007	-0.000001
11.825000	-68.543554	0.000007	-0.000001
11.850000	-68.449162	0.000007	-0.000001
11.875000	-68.352390	0.000007	-0.000001
11.900000	-68.253263	0.000007	-0.000001
11.925000	-68.151810	0.000007	-0.000001
11.950000	-68.048060	0.000007	-0.000001
11.975000	-67.942043	0.000007	-0.000001
12.000000	-67.833794	0.000007	-0.000001
12.025000	-67.723344	0.000007	-0.000002
12.050000	-67.610730	0.000007	-0.000002
12.075000	-67.495987	0.000007	-0.000002
12.100000	-67.379153	0.000007	-0.000002
12.125000	-67.260265	0.000007	-0.000002
12.150000	-67.139363	0.000007	-0.000002
12.175000	-67.016486	0.000007	-0.000002
12.200000	-66.891675	0.000007	-0.000002
12.225000	-66.764970	0.000007	-0.000003
12.250000	-66.636413	0.000007	-0.000003
12.275000	-66.506046	0.000007	-0.000003
12.300000	-66.373911	0.000007	-0.000003
12.325000	-66.240050	0.000007	-0.000003
12.350000	-66.104508	0.000007	-0.000004
12.375000	-65.967326	0.000007	-0.000004
12.400000	-65.828548	0.000007	-0.000004
12.425000	-65.688216	0.000007	-0.000004
12.450000	-65.546375	0.000007	-0.000005
12.475000	-65.403067	0.000007	-0.000005
12.500000	-65.258335	0.000007	-0.000005
12.525000	-65.112223	0.000007	-0.000006
12.550000	-64.964772	0.000007	-0.000006
12.575000	-64.816026	0.000007	-0.000007
12.600000	-64.666026	0.000007	-0.000007
12.625000	-64.514813	0.000007	-0.000008
12.650000	-64.362430	0.000007	-0.000008
12.675000	-64.208917	0.000007	-0.000009
12.700000	-64.054315	0.000007	-0.000010
