time	voltage	cai	inat
0.000000	-65.000000	0.000004	-0.000004
0.025000	-66.549306	0.000012	-0.000004
0.050000	-67.629371	0.000013	-0.000002
0.075000	-68.404614	0.000012	-0.000001
0.100000	-68.962278	0.000011	-0.000001
0.125000	-69.363764	0.000010	-0.000001
0.150000	-69.652960	0.000010	-0.000000
0.175000	-69.861499	0.000009	-0.000000
0.200000	-70.012093	0.000009	-0.000000
0.225000	-70.121013	0.000008	-0.000000
0.250000	-70.199910	0.000008	-0.000000
0.275000	-70.257151	0.000008	-0.000000
0.300000	-70.298745	0.000008	-0.000000
0.325000	-70.329014	0.000008	-0.000000
0.350000	-70.351072	0.000008	-0.000000
0.375000	-70.367166	0.000008	-0.000000
0.400000	-70.378924	0.000008	-0.000000
0.425000	-70.387522	0.000008	-0.000000
0.450000	-70.393819	0.000008	-0.000000
0.475000	-70.398437	0.000008	-0.000000
0.500000	-70.401832	0.000008	-0.000000
0.525000	-70.404335	0.000008	-0.000000
0.550000	-70.406192	0.000008	-0.000000
0.575000	-70.407580	0.000008	-0.000000
0.600000	-70.408630	0.000008	-0.000000
0.625000	-70.409440	0.000008	-0.000000
0.650000	-70.410079	0.000008	-0.000000
0.675000	-70.410599	0.000008	-0.000000
0.700000	-70.411039	0.000008	-0.000000
0.725000	-70.411424	0.000008	-0.000000
0.750000	-70.411776	0.000008	-0.000000
0.775000	-70.412108	0.000008	-0.000000
0.800000	-70.412429	0.000008	-0.000000
0.825000	-70.412747	0.000008	-0.000000
0.850000	-70.413065	0.000008	-0.000000
0.875000	-70.413386	0.000008	-0.000000
0.900000	-70.413711	0.000008	-0.000000
0.925000	-70.414041	0.000008	-0.000000
0.950000	-70.414375	0.000008	-0.000000
0.975000	-70.414713	0.000008	-0.000000
1.000000	-70.415055	0.000008	-0.000000
1.025000	-70.415398	0.000008	-0.000000
1.050000	-70.415742	0.000008	-0.000000
1.075000	-70.416085	0.000008	-0.000000
1.100000	-70.416427	0.000008	-0.000000
1.125000	-70.416767	0.000008	-0.000000
1.150000	-70.417102	0.000008	-0.000000
1.175000	-70.417433	0.000008	-0.000000
1.200000	-70.417759	0.000008	-0.000000
1.225000	-70.418078	0.000008	-0.000000
1.250000	-70.418390	0.000008	-0.000000
1.275000	-70.418695	0.000008	-0.000000
1.300000	-70.418992	0.000008	-0.000000
1.325000	-70.419280	0.000008	-0.000000
1.350000	-70.419560	0.000008	-0.000000
1.375000	-70.419830	0.000008	-0.000000
1.400000	-70.420092	0.000008	-0.000000
1.425000	-70.420344	0.000008	-0.000000
1.450000	-70.420587	0.000008	-0.000000
1.475000	-70.420821	0.000008	-0.000000
1.500000	-70.421045	0.000008	-0.000000
1.525000	-70.421260	0.000008	-0.000000
1.550000	-70.421466	0.000008	-0.000000
1.575000	-70.421663	0.000008	-0.000000
1.600000	-70.421851	0.000008	-0.000000
1.625000	-70.422031	0.000008	-0.000000
1.650000	-70.422202	0.000008	-0.000000
1.675000	-70.422365	0.000008	-0.000000
1.700000	-70.422520	0.000008	-0.000000
1.725000	-70.422667	0.000008	-0.000000
1.750000	-70.422807	0.000008	-0.000000
1.775000	-70.422939	0.000008	-0.000000
1.800000	-70.423064	0.000008	-0.000000
1.825000	-70.423183	0.000008	-0.000000
1.850000	-70.423295	0.000008	-0.000000
1.875000	-70.423401	0.000008	-0.000000
1.900000	-70.423501	0.000008	-0.000000
1.925000	-70.423596	0.000008	-0.000000
1.950000	-70.423684	0.000008	-0.000000
1.975000	-70.423768	0.000008	-0.000000
2.000000	-70.423846	0.000008	-0.000000
2.025000	-70.423920	0.000008	-0.000000
2.050000	-70.423989	0.000008	-0.000000
2.075000	-70.424054	0.000008	-0.000000
2.100000	-70.424114	0.000008	-0.000000
2.125000	-70.424170	0.000008	-0.000000
2.150000	-70.424223	0.000008	-0.000000
2.175000	-70.424272	0.000008	-0.000000
2.200000	-70.424318	0.000008	-0.000000
2.225000	-70.424360	0.000008	-0.000000
2.250000	-70.424400	0.000008	-0.000000
2.275000	-70.424400	0.000008	-0.000000
2.300000	-70.424401	0.000008	-0.000000
2.325000	-70.424401	0.000008	-0.000000
2.350000	-70.424402	0.000008	-0.000000
2.375000	-70.424402	0.000008	-0.000000
2.400000	-70.424402	0.000008	-0.000000
2.425000	-70.424403	0.000008	-0.000000
2.450000	-70.424403	0.000008	-0.000000
2.475000	-70.424403	0.000008	-0.000000
2.500000	-70.424403	0.000008	-0.000000
2.525000	-70.424404	0.000008	-0.000000
2.550000	-70.424404	0.000008	-0.000000
2.575000	-70.424404	0.000008	-0.000000
2.600000	-70.424404	0.000008	-0.000000
2.625000	-70.424405	0.000008	-0.000000
2.650000	-70.424405	0.000008	-0.000000
2.675000	-70.424405	0.000008	-0.000000
2.700000	-70.424405	0.000008	-0.000000
2.725000	-70.424405	0.000008	-0.000000
2.750000	-70.424406	0.000008	-0.000000
2.775000	-70.424406	0.000008	-0.000000
2.800000	-70.424406	0.000008	-0.000000
2.825000	-70.424406	0.000008	-0.000000
2.850000	-70.424406	0.000008	-0.000000
2.875000	-70.424407	0.000008	-0.000000
2.900000	-70.424407	0.000008	-0.000000
2.925000	-70.424407	0.000008	-0.000000
2.950000	-70.424407	0.000008	-0.000000
2.975000	-70.424407	0.000008	-0.000000
3.000000	-70.424407	0.000008	-0.000000
3.025000	-70.424408	0.000008	-0.000000
3.050000	-70.424408	0.000008	-0.000000
3.075000	-70.424408	0.000008	-0.000000
3.100000	-70.424408	0.000008	-0.000000
3.125000	-70.424408	0.000008	-0.000000
3.150000	-70.424408	0.000008	-0.000000
3.175000	-70.424409	0.000008	-0.000000
3.200000	-70.424409	0.000008	-0.000000
3.225000	-70.424409	0.000008	-0.000000
3.250000	-70.424409	0.000008	-0.000000
3.275000	-70.424409	0.000008	-0.000000
3.300000	-70.424409	0.000008	-0.000000
3.325000	-70.424410	0.000008	-0.000000
3.350000	-70.424410	0.000008	-0.000000
3.375000	-70.424410	0.000008	-0.000000
3.400000	-70.424410	0.000008	-0.000000
3.425000	-70.424410	0.000008	-0.000000
3.450000	-70.424410	0.000008	-0.000000
3.475000	-70.424410	0.000008	-0.000000
3.500000	-70.424411	0.000008	-0.000000
3.525000	-70.424411	0.000008	-0.000000
3.550000	-70.424411	0.000008	-0.000000
3.575000	-70.424411	0.000008	-0.000000
3.600000	-70.424411	0.000008	-0.000000
3.625000	-70.424411	0.000008	-0.000000
3.650000	-70.424412	0.000008	-0.000000
3.675000	-70.424412	0.000008	-0.000000
3.700000	-70.424412	0.000008	-0.000000
3.725000	-70.424412	0.000008	-0.000000
3.750000	-70.424412	0.000008	-0.000000
3.775000	-70.424412	0.000008	-0.000000
3.800000	-70.424412	0.000008	-0.000000
3.825000	-70.424413	0.000008	-0.000000
3.850000	-70.424413	0.000008	-0.000000
3.875000	-70.424413	0.000008	-0.000000
3.900000	-70.424413	0.000008	-0.000000
3.925000	-70.424413	0.000008	-0.000000
3.950000	-70.424413	0.000008	-0.000000
3.975000	-70.424413	0.000008	-0.000000
4.000000	-70.424413	0.000008	-0.000000
4.025000	-70.424414	0.000008	-0.000000
4.050000	-70.424414	0.000008	-0.000000
4.075000	-70.424414	0.000008	-0.000000
4.100000	-70.424414	0.000008	-0.000000
4.125000	-70.424414	0.000008	-0.000000
4.150000	-70.424414	0.000008	-0.000000
4.175000	-70.424414	0.000008	-0.000000
4.200000	-70.424415	0.000008	-0.000000
4.225000	-70.424415	0.000008	-0.000000
4.250000	-70.424415	0.000008	-0.000000
4.275000	-70.424415	0.000008	-0.000000
4.300000	-70.424415	0.000008	-0.000000
4.325000	-70.424415	0.000008	-0.000000
4.350000	-70.424415	0.000008	-0.000000
4.375000	-70.424415	0.000008	-0.000000
4.400000	-70.424416	0.000008	-0.000000
4.425000	-70.424416	0.000008	-0.000000
4.450000	-70.424416	0.000008	-0.000000
4.475000	-70.424416	0.000008	-0.000000
4.500000	-70.424416	0.000008	-0.000000
4.525000	-70.424416	0.000008	-0.000000
4.550000	-70.424416	0.000008	-0.000000
4.575000	-70.424416	0.000008	-0.000000
4.600000	-70.424417	0.000008	-0.000000
4.625000	-70.424417	0.000008	-0.000000
4.650000	-70.424417	0.000008	-0.000000
4.675000	-70.424417	0.000008	-0.000000
4.700000	-70.424417	0.000008	-0.000000
4.725000	-70.424417	0.000008	-0.000000
4.750000	-70.424417	0.000008	-0.000000
4.775000	-70.424418	0.000008	-0.000000
4.800000	-70.424418	0.000008	-0.000000
4.825000	-70.424418	0.000008	-0.000000
4.850000	-70.424418	0.000008	-0.000000
4.875000	-70.424418	0.000008	-0.000000
4.900000	-70.424418	0.000008	-0.000000
4.925000	-70.424418	0.000008	-0.000000
4.950000	-70.424418	0.000008	-0.000000
4.975000	-70.424418	0.000008	-0.000000
5.000000	-70.424419	0.000008	-0.000000
5.025000	-70.424419	0.000008	-0.000000
5.050000	-70.424419	0.000008	-0.000000
5.075000	-70.424419	0.000008	-0.000000
5.100000	-70.424419	0.000008	-0.000000
5.125000	-70.424419	0.000008	-0.000000
5.150000	-70.424419	0.000008	-0.000000
5.175000	-70.424419	0.000008	-0.000000
5.200000	-70.424420	0.000008	-0.000000
5.225000	-70.424420	0.000008	-0.000000
5.250000	-70.424420	0.000008	-0.000000
5.275000	-70.424420	0.000008	-0.000000
5.300000	-70.424420	0.000008	-0.000000
5.325000	-70.424420	0.000008	-0.000000
5.350000	-70.424420	0.000008	-0.000000
5.375000	-70.424420	0.000008	-0.000000
5.400000	-70.424421	0.000008	-0.000000
5.425000	-70.424421	0.000008	-0.000000
5.450000	-70.424421	0.000008	-0.000000
5.475000	-70.424421	0.000008	-0.000000
5.500000	-70.424421	0.000008	-0.000000
5.525000	-70.424421	0.000008	-0.000000
5.550000	-70.424421	0.000008	-0.000000
5.575000	-70.424421	0.000008	-0.000000
5.600000	-70.424422	0.000008	-0.000000
5.625000	-70.424422	0.000008	-0.000000
5.650000	-70.424422	0.000008	-0.000000
5.675000	-70.424422	0.000008	-0.000000
5.700000	-70.424422	0.000008	-0.000000
5.725000	-70.424422	0.000008	-0.000000
5.750000	-70.424422	0.000008	-0.000000
5.775000	-70.424422	0.000008	-0.000000
5.800000	-70.424422	0.000008	-0.000000
5.825000	-70.424423	0.000008	-0.000000
5.850000	-70.424423	0.000008	-0.000000
5.875000	-70.424423	0.000008	-0.000000
5.900000	-70.424423	0.000008	-0.000000
5.925000	-70.424423	0.000008	-0.000000
5.950000	-70.424423	0.000008	-0.000000
5.975000	-70.424423	0.000008	-0.000000
6.000000	-70.424423	0.000008	-0.000000
6.025000	-70.424424	0.000008	-0.000000
6.050000	-70.424424	0.000008	-0.000000
6.075000	-70.424424	0.000008	-0.000000
6.100000	-70.424424	0.000008	-0.000000
6.125000	-70.424424	0.000008	-0.000000
6.150000	-70.424424	0.000008	-0.000000
6.175000	-70.424424	0.000008	-0.000000
6.200000	-70.424424	0.000008	-0.000000
6.225000	-70.424424	0.000008	-0.000000
6.250000	-70.424425	0.000008	-0.000000
6.275000	-70.424425	0.000008	-0.000000
6.300000	-70.424425	0.000008	-0.000000
6.325000	-70.424425	0.000008	-0.000000
6.350000	-70.424425	0.000008	-0.000000
6.375000	-70.424425	0.000008	-0.000000
6.400000	-70.424425	0.000008	-0.000000
6.425000	-70.424425	0.000008	-0.000000
6.450000	-70.424426	0.000008	-0.000000
6.475000	-70.424426	0.000008	-0.000000
6.500000	-70.424426	0.000008	-0.000000
6.525000	-70.424426	0.000008	-0.000000
6.550000	-70.424426	0.000008	-0.000000
6.575000	-70.424426	0.000008	-0.000000
6.600000	-70.424426	0.000008	-0.000000
6.625000	-70.424426	0.000008	-0.000000
6.650000	-70.424426	0.000008	-0.000000
6.675000	-70.424427	0.000008	-0.000000
6.700000	-70.424427	0.000008	-0.000000
6.725000	-70.424427	0.000008	-0.000000
6.750000	-70.424427	0.000008	-0.000000
6.775000	-70.424427	0.000008	-0.000000
6.800000	-70.424427	0.000008	-0.000000
6.825000	-70.424427	0.000008	-0.000000
6.850000	-70.424427	0.000008	-0.000000
6.875000	-70.424427	0.000008	-0.000000
6.900000	-70.424428	0.000008	-0.000000
6.925000	-70.424428	0.000008	-0.000000
6.950000	-70.424428	0.000008	-0.000000
6.975000	-70.424428	0.000008	-0.000000
7.000000	-70.424428	0.000008	-0.000000
7.025000	-70.424428	0.000008	-0.000000
7.050000	-70.424428	0.000008	-0.000000
7.075000	-70.424428	0.000008	-0.000000
7.100000	-70.424428	0.000008	-0.000000
7.125000	-70.424429	0.000008	-0.000000
7.150000	-70.424429	0.000008	-0.000000
7.175000	-70.424429	0.000008	-0.000000
7.200000	-70.424429	0.000008	-0.000000
7.225000	-70.424429	0.000008	-0.000000
7.250000	-70.424429	0.000008	-0.000000
7.275000	-70.424429	0.000008	-0.000000
7.300000	-70.424429	0.000008	-0.000000
7.325000	-70.424429	0.000008	-0.000000
7.350000	-70.424430	0.000008	-0.000000
7.375000	-70.424430	0.000008	-0.000000
7.400000	-70.424430	0.000008	-0.000000
7.425000	-70.424430	0.000008	-0.000000
7.450000	-70.424430	0.000008	-0.000000
7.475000	-70.424430	0.000008	-0.000000
7.500000	-70.424430	0.000008	-0.000000
7.525000	-70.424430	0.000008	-0.000000
7.550000	-70.424430	0.000008	-0.000000
7.575000	-70.424431	0.000008	-0.000000
7.600000	-70.424431	0.000008	-0.000000
7.625000	-70.424431	0.000008	-0.000000
7.650000	-70.424431	0.000008	-0.000000
7.675000	-70.424431	0.000008	-0.000000
7.700000	-70.424431	0.000008	-0.000000
7.725000	-70.424431	0.000008	-0.000000
7.750000	-70.424431	0.000008	-0.000000
7.775000	-70.424431	0.000008	-0.000000
7.800000	-70.424432	0.000008	-0.000000
7.825000	-70.424432	0.000008	-0.000000
7.850000	-70.424432	0.000008	-0.000000
7.875000	-70.424432	0.000008	-0.000000
7.900000	-70.424432	0.000008	-0.000000
7.925000	-70.424432	0.000008	-0.000000
7.950000	-70.424432	0.000008	-0.000000
7.975000	-70.424432	0.000008	-0.000000
8.000000	-70.424432	0.000008	-0.000000
8.025000	-70.424433	0.000008	-0.000000
8.050000	-70.424433	0.000008	-0.000000
8.075000	-70.424433	0.000008	-0.000000
8.100000	-70.424433	0.000008	-0.000000
8.125000	-70.424433	0.000008	-0.000000
8.150000	-70.424433	0.000008	-0.000000
8.175000	-70.424433	0.000008	-0.000000
8.200000	-70.424433	0.000008	-0.000000
8.225000	-70.424433	0.000008	-0.000000
8.250000	-70.424434	0.000008	-0.000000
8.275000	-70.424434	0.000008	-0.000000
8.300000	-70.424434	0.000008	-0.000000
8.325000	-70.424434	0.000008	-0.000000
8.350000	-70.424434	0.000008	-0.000000
8.375000	-70.424434	0.000008	-0.000000
8.400000	-70.424434	0.000008	-0.000000
8.425000	-70.424434	0.000008	-0.000000
8.450000	-70.424434	0.000008	-0.000000
8.475000	-70.424435	0.000008	-0.000000
8.500000	-70.424435	0.000008	-0.000000
8.525000	-70.424435	0.000008	-0.000000
8.550000	-70.424435	0.000008	-0.000000
8.575000	-70.424435	0.000008	-0.000000
8.600000	-70.424435	0.000008	-0.000000
8.625000	-70.424435	0.000008	-0.000000
8.650000	-70.424435	0.000008	-0.000000
8.675000	-70.424435	0.000008	-0.000000
8.700000	-70.424436	0.000008	-0.000000
8.725000	-70.424436	0.000008	-0.000000
8.750000	-70.424436	0.000008	-0.000000
8.775000	-70.424436	0.000008	-0.000000
8.800000	-70.424436	0.000008	-0.000000
8.825000	-70.424436	0.000008	-0.000000
8.850000	-70.424436	0.000008	-0.000000
8.875000	-70.424436	0.000008	-0.000000
8.900000	-70.424436	0.000008	-0.000000
8.925000	-70.424437	0.000008	-0.000000
8.950000	-70.424437	0.000008	-0.000000
8.975000	-70.424437	0.000008	-0.000000
9.000000	-70.424437	0.000008	-0.000000
9.025000	-70.424437	0.000008	-0.000000
9.050000	-70.424437	0.000008	-0.000000
9.075000	-70.424437	0.000008	-0.000000
9.100000	-70.424437	0.000008	-0.000000
9.125000	-70.424437	0.000008	-0.000000
9.150000	-70.424438	0.000008	-0.000000
9.175000	-70.424438	0.000008	-0.000000
9.200000	-70.424438	0.000008	-0.000000
9.225000	-70.424438	0.000008	-0.000000
9.250000	-70.424438	0.000008	-0.000000
9.275000	-70.424438	0.000008	-0.000000
9.300000	-70.424438	0.000008	-0.000000
9.325000	-70.424438	0.000008	-0.000000
9.350000	-70.424438	0.000008	-0.000000
9.375000	-70.424438	0.000008	-0.000000
9.400000	-70.424439	0.000008	-0.000000
9.425000	-70.424439	0.000008	-0.000000
9.450000	-70.424439	0.000008	-0.000000
9.475000	-70.424439	0.000008	-0.000000
9.500000	-70.424439	0.000008	-0.000000
9.525000	-70.424439	0.000008	-0.000000
9.550000	-70.424439	0.000008	-0.000000
9.575000	-70.424439	0.000008	-0.000000
9.600000	-70.424439	0.000008	-0.000000
9.625000	-70.424440	0.000008	-0.000000
9.650000	-70.424440	0.000008	-0.000000
9.675000	-70.424440	0.000008	-0.000000
9.700000	-70.424440	0.000008	-0.000000
9.725000	-70.424440	0.000008	-0.000000
9.750000	-70.424440	0.000008	-0.000000
9.775000	-70.424440	0.000008	-0.000000
9.800000	-70.424440	0.000008	-0.000000
9.825000	-70.424440	0.000008	-0.000000
9.850000	-70.424441	0.000008	-0.000000
9.875000	-70.424441	0.000008	-0.000000
9.900000	-70.424441	0.000008	-0.000000
9.925000	-70.424441	0.000008	-0.000000
9.950000	-70.424441	0.000008	-0.000000
9.975000	-70.424441	0.000008	-0.000000
10.000000	-70.424441	0.000008	-0.000000
10.025000	-70.424441	0.000008	-0.000000
10.050000	-70.424441	0.000008	-0.000000
10.075000	-70.424442	0.000008	-0.000000
10.100000	-70.424442	0.000008	-0.000000
10.125000	-70.424442	0.000008	-0.000000
10.150000	-70.424442	0.000008	-0.000000
10.175000	-70.424442	0.000008	-0.000000
10.200000	-70.424442	0.000008	-0.000000
10.225000	-70.424442	0.000008	-0.000000
10.250000	-70.424442	0.000008	-0.000000
10.275000	-70.424442	0.000008	-0.000000
10.300000	-70.424442	0.000008	-0.000000
10.325000	-70.424441	0.000008	-0.000000
10.350000	-70.424437	0.000008	-0.000000
10.375000	-70.424424	0.000008	-0.000000
10.400000	-70.424392	0.000008	-0.000000
10.425000	-70.424327	0.000008	-0.000000
10.450000	-70.424206	0.000008	-0.000000
10.475000	-70.424005	0.000008	-0.000000
10.500000	-70.423689	0.000008	-0.000000
10.525000	-70.423221	0.000008	-0.000000
10.550000	-70.422553	0.000008	-0.000000
10.575000	-70.421637	0.000008	-0.000000
10.600000	-70.420415	0.000008	-0.000000
10.625000	-70.418827	0.000008	-0.000000
10.650000	-70.416807	0.000008	-0.000000
10.675000	-70.414284	0.000008	-0.000000
10.700000	-70.411187	0.000008	-0.000000
10.725000	-70.407438	0.000008	-0.000000
10.750000	-70.402959	0.000008	-0.000000
10.775000	-70.397669	0.000008	-0.000000
10.800000	-70.391486	0.000008	-0.000000
10.825000	-70.384327	0.000008	-0.000000
10.850000	-70.376108	0.000008	-0.000000
10.875000	-70.366744	0.000008	-0.000000
10.900000	-70.356153	0.000008	-0.000000
10.925000	-70.344252	0.000008	-0.000000
10.950000	-70.330958	0.000008	-0.000000
10.975000	-70.316192	0.000008	-0.000000
11.000000	-70.299875	0.000008	-0.000000
11.025000	-70.281929	0.000008	-0.000000
11.050000	-70.262282	0.000008	-0.000000
11.075000	-70.240860	0.000008	-0.000000
11.100000	-70.217596	0.000008	-0.000000
11.125000	-70.192421	0.000008	-0.000000
11.150000	-70.165274	0.000008	-0.000000
11.175000	-70.136094	0.000008	-0.000000
11.200000	-70.104824	0.000008	-0.000000
11.225000	-70.071411	0.000008	-0.000000
11.250000	-70.035805	0.000008	-0.000000
11.275000	-69.997960	0.000008	-0.000000
11.300000	-69.957832	0.000008	-0.000000
11.325000	-69.915382	0.000008	-0.000000
11.350000	-69.870574	0.000008	-0.000000
11.375000	-69.823377	0.000008	-0.000000
11.400000	-69.773760	0.000008	-0.000000
11.425000	-69.721700	0.000008	-0.000000
11.450000	-69.667174	0.000008	-0.000000
11.475000	-69.610164	0.000008	-0.000000
11.500000	-69.550655	0.000008	-0.000000
11.525000	-69.488635	0.000008	-0.000000
11.550000	-69.424096	0.000008	-0.000000
11.575000	-69.357032	0.000008	-0.000000
11.600000	-69.287441	0.000008	-0.000000
11.625000	-69.215323	0.000008	-0.000000
11.650000	-69.140683	0.000008	-0.000000
11.675000	-69.063525	0.000008	-0.000000
11.700000	-68.983860	0.000008	-0.000000
11.725000	-68.901698	0.000008	-0.000001
11.750000	-68.817053	0.000008	-0.000001
11.775000	-68.729941	0.000008	-0.000001
11.800000	-68.640382	0.000008	-0.000001
11.825000	-68.548394	0.000008	-0.000001
11.850000	-68.454002	0.000008	-0.000001
11.875000	-68.357229	0.000008	-0.000001
11.900000	-68.258102	0.000008	-0.000001
11.925000	-68.156648	0.000008	-0.000001
11.950000	-68.052898	0.000008	-0.000001
11.975000	-67.946882	0.000008	-0.000001
12.000000	-67.838634	0.000008	-0.000001
12.025000	-67.728186	0.000008	-0.000001
12.050000	-67.615574	0.000008	-0.000001
12.075000	-67.500834	0.000008	-0.000001
12.100000	-67.384004	0.000008	-0.000001
12.125000	-67.265121	0.000008	-0.000001
12.150000	-67.144224	0.000008	-0.000001
12.175000	-67.021353	0.000008	-0.000001
12.200000	-66.896550	0.000008	-0.000001
12.225000	-66.769854	0.000008	-0.000001
12.250000	-66.641307	0.000008	-0.000002
12.275000	-66.510951	0.000008	-0.000002
12.300000	-66.378830	0.000008	-0.000002
12.325000	-66.244985	0.000008	-0.000002
12.350000	-66.109459	0.000008	-0.000002
12.375000	-65.972297	0.000008	-0.000002
12.400000	-65.833540	0.000008	-0.000002
12.425000	-65.693234	0.000008	-0.000002
12.450000	-65.551420	0.000008	-0.000003
12.475000	-65.408143	0.000008	-0.000003
12.500000	-65.263446	0.000008	-0.000003
12.525000	-65.117372	0.000008	-0.000003
12.550000	-64.969963	0.000008	-0.000003
12.575000	-64.821264	0.000008	-0.000004
12.600000	-64.671316	0.000008	-0.000004
12.625000	-64.520162	0.000008	-0.000004
12.650000	-64.367843	0.000008	-0.000005
12.675000	-64.214401	0.000008	-0.000005
12.700000	-64.059877	0.000008	-0.000005
