time	voltage	cai	inat
0.000000	-65.000000	0.000001	-0.000002
0.025000	-60.978238	0.000010	-0.000002
0.050000	-58.256636	0.000025	-0.000015
0.075000	-56.320704	0.000050	-0.000053
0.100000	-54.884084	0.000085	-0.000127
0.125000	-53.774085	0.000126	-0.000234
0.150000	-52.888318	0.000171	-0.000372
0.175000	-52.390596	0.000217	-0.000529
0.200000	-51.858896	0.000257	-0.000644
0.225000	-51.365168	0.000295	-0.000788
0.250000	-49.892871	0.000334	-0.000952
0.275000	-49.506727	0.000431	-0.001635
0.300000	-49.453187	0.000502	-0.001861
0.325000	-49.525689	0.000540	-0.001887
0.350000	-49.630446	0.000552	-0.001837
0.375000	-48.724429	0.000551	-0.001769
0.400000	-48.745458	0.000615	-0.002431
0.425000	-49.062646	0.000644	-0.002395
0.450000	-49.391224	0.000633	-0.002137
0.475000	-49.624173	0.000605	-0.001917
0.500000	-49.766777	0.000575	-0.001770
0.525000	-49.845843	0.000551	-0.001684
0.550000	-49.964908	0.000534	-0.001637
0.575000	-50.001178	0.000518	-0.001566
0.600000	-49.988439	0.000507	-0.001546
0.625000	-49.960001	0.000503	-0.001554
0.650000	-49.929932	0.000502	-0.001571
0.675000	-49.902679	0.000504	-0.001589
0.700000	-49.879183	0.000506	-0.001605
0.725000	-49.859098	0.000508	-0.001619
0.750000	-49.922066	0.000510	-0.001631
0.775000	-49.927871	0.000507	-0.001592
0.800000	-49.899266	0.000504	-0.001590
0.825000	-49.863076	0.000505	-0.001607
0.850000	-49.830164	0.000507	-0.001629
0.875000	-49.883638	0.000510	-0.001649
0.900000	-49.883330	0.000507	-0.001616
0.925000	-49.851388	0.000506	-0.001616
0.950000	-49.814059	0.000507	-0.001636
0.975000	-49.781662	0.000510	-0.001659
1.000000	-49.756357	0.000512	-0.001679
1.025000	-49.737423	0.000515	-0.001694
1.050000	-49.723419	0.000517	-0.001705
1.075000	-49.793485	0.000519	-0.001714
1.100000	-49.806000	0.000515	-0.001670
1.125000	-49.783734	0.000512	-0.001663
1.150000	-49.754119	0.000512	-0.001677
1.175000	-49.728254	0.000513	-0.001695
1.200000	-49.708726	0.000515	-0.001711
1.225000	-49.694994	0.000517	-0.001723
1.250000	-49.685817	0.000518	-0.001732
1.275000	-49.679901	0.000519	-0.001737
1.300000	-49.676192	0.000520	-0.001741
1.325000	-49.673931	0.000520	-0.001743
1.350000	-49.672621	0.000520	-0.001744
1.375000	-49.671956	0.000520	-0.001745
1.400000	-49.671761	0.000519	-0.001746
1.425000	-49.671942	0.000519	-0.001746
1.450000	-49.672449	0.000518	-0.001746
1.475000	-49.673259	0.000518	-0.001745
1.500000	-49.674356	0.000517	-0.001745
1.525000	-49.675732	0.000516	-0.001744
1.550000	-49.677378	0.000516	-0.001743
1.575000	-49.679283	0.000515	-0.001742
1.600000	-49.681439	0.000514	-0.001741
1.625000	-49.764464	0.000513	-0.001740
1.650000	-49.787192	0.000508	-0.001687
1.675000	-49.773492	0.000503	-0.001674
1.700000	-49.751735	0.000502	-0.001683
1.725000	-49.733415	0.000502	-0.001697
1.750000	-49.721207	0.000503	-0.001708
1.775000	-49.714589	0.000504	-0.001715
1.800000	-49.792825	0.000504	-0.001719
1.825000	-49.813401	0.000500	-0.001670
1.850000	-49.799315	0.000496	-0.001658
1.875000	-49.778084	0.000494	-0.001667
1.900000	-49.760690	0.000495	-0.001681
1.925000	-49.749531	0.000496	-0.001691
1.950000	-49.743948	0.000497	-0.001698
1.975000	-49.742524	0.000497	-0.001701
2.000000	-49.743904	0.000497	-0.001702
2.025000	-49.747042	0.000497	-0.001701
2.050000	-49.751216	0.000496	-0.001699
2.075000	-49.755968	0.000495	-0.001696
2.100000	-49.761028	0.000494	-0.001694
2.125000	-49.766249	0.000493	-0.001690
2.150000	-49.771557	0.000492	-0.001687
2.175000	-49.776916	0.000491	-0.001684
2.200000	-49.782316	0.000490	-0.001681
2.225000	-49.787750	0.000489	-0.001677
2.250000	-49.793220	0.000488	-0.001674
2.275000	-49.793282	0.000488	-0.001671
2.300000	-49.793328	0.000488	-0.001671
2.325000	-49.793370	0.000488	-0.001671
2.350000	-49.793410	0.000488	-0.001671
2.375000	-49.793448	0.000488	-0.001671
2.400000	-49.793485	0.000488	-0.001671
2.425000	-49.793520	0.000488	-0.001671
2.450000	-49.793554	0.000488	-0.001671
2.475000	-49.793588	0.000488	-0.001671
2.500000	-49.793620	0.000488	-0.001671
2.525000	-49.793651	0.000488	-0.001671
2.550000	-49.793682	0.000488	-0.001671
2.575000	-49.793712	0.000488	-0.001671
2.600000	-49.793742	0.000488	-0.001671
2.625000	-49.793771	0.000488	-0.001671
2.650000	-49.793800	0.000488	-0.001670
2.675000	-49.793828	0.000488	-0.001670
2.700000	-49.793856	0.000488	-0.001670
2.725000	-49.793884	0.000488	-0.001670
2.750000	-49.793911	0.000488	-0.001670
2.775000	-49.793938	0.000488	-0.001670
2.800000	-49.793965	0.000488	-0.001670
2.825000	-49.793991	0.000488	-0.001670
2.850000	-49.794018	0.000487	-0.001670
2.875000	-49.794044	0.000487	-0.001670
2.900000	-49.794070	0.000487	-0.001670
2.925000	-49.794096	0.000487	-0.001670
2.950000	-49.794122	0.000487	-0.001670
2.975000	-49.794147	0.000487	-0.001670
3.000000	-49.794173	0.000487	-0.001670
3.025000	-49.794198	0.000487	-0.001670
3.050000	-49.794224	0.000487	-0.001670
3.075000	-49.794249	0.000487	-0.001670
3.100000	-49.794274	0.000487	-0.001670
3.125000	-49.794299	0.000487	-0.001670
3.150000	-49.794324	0.000487	-0.001670
3.175000	-49.794349	0.000487	-0.001670
3.200000	-49.794374	0.000487	-0.001670
3.225000	-49.794399	0.000487	-0.001670
3.250000	-49.794424	0.000487	-0.001670
3.275000	-49.794449	0.000487	-0.001670
3.300000	-49.794474	0.000487	-0.001670
3.325000	-49.794499	0.000487	-0.001670
3.350000	-49.794523	0.000487	-0.001670
3.375000	-49.794548	0.000487	-0.001670
3.400000	-49.794573	0.000487	-0.001670
3.425000	-49.794597	0.000487	-0.001670
3.450000	-49.794622	0.000487	-0.001670
3.475000	-49.794647	0.000487	-0.001670
3.500000	-49.794671	0.000487	-0.001670
3.525000	-49.794696	0.000487	-0.001670
3.550000	-49.794720	0.000487	-0.001670
3.575000	-49.794745	0.000487	-0.001670
3.600000	-49.794770	0.000487	-0.001670
3.625000	-49.794794	0.000487	-0.001670
3.650000	-49.794819	0.000487	-0.001670
3.675000	-49.794843	0.000487	-0.001670
3.700000	-49.794868	0.000487	-0.001670
3.725000	-49.794892	0.000487	-0.001670
3.750000	-49.794917	0.000487	-0.001670
3.775000	-49.794941	0.000487	-0.001670
3.800000	-49.794966	0.000487	-0.001670
3.825000	-49.794990	0.000487	-0.001670
3.850000	-49.795015	0.000487	-0.001670
3.875000	-49.795039	0.000487	-0.001670
3.900000	-49.795063	0.000487	-0.001670
3.925000	-49.795088	0.000487	-0.001670
3.950000	-49.795112	0.000487	-0.001670
3.975000	-49.795137	0.000487	-0.001670
4.000000	-49.795161	0.000487	-0.001670
4.025000	-49.795186	0.000487	-0.001670
4.050000	-49.795210	0.000487	-0.001670
4.075000	-49.795235	0.000487	-0.001670
4.100000	-49.795259	0.000487	-0.001669
4.125000	-49.795283	0.000487	-0.001669
4.150000	-49.795308	0.000487	-0.001669
4.175000	-49.795332	0.000487	-0.001669
4.200000	-49.795357	0.000487	-0.001669
4.225000	-49.795381	0.000487	-0.001669
4.250000	-49.795406	0.000487	-0.001669
4.275000	-49.795430	0.000487	-0.001669
4.300000	-49.795455	0.000487	-0.001669
4.325000	-49.795479	0.000487	-0.001669
4.350000	-49.795503	0.000487	-0.001669
4.375000	-49.795528	0.000487	-0.001669
4.400000	-49.795552	0.000487	-0.001669
4.425000	-49.795577	0.000487	-0.001669
4.450000	-49.795601	0.000487	-0.001669
4.475000	-49.795626	0.000487	-0.001669
4.500000	-49.795650	0.000487	-0.001669
4.525000	-49.795675	0.000487	-0.001669
4.550000	-49.795699	0.000487	-0.001669
4.575000	-49.795724	0.000487	-0.001669
4.600000	-49.795748	0.000487	-0.001669
4.625000	-49.795773	0.000487	-0.001669
4.650000	-49.795797	0.000487	-0.001669
4.675000	-49.795821	0.000487	-0.001669
4.700000	-49.795846	0.000487	-0.001669
4.725000	-49.795870	0.000487	-0.001669
4.750000	-49.795895	0.000487	-0.001669
4.775000	-49.795919	0.000487	-0.001669
4.800000	-49.795944	0.000487	-0.001669
4.825000	-49.795968	0.000487	-0.001669
4.850000	-49.795993	0.000487	-0.001669
4.875000	-49.796017	0.000487	-0.001669
4.900000	-49.796042	0.000487	-0.001669
4.925000	-49.796067	0.000487	-0.001669
4.950000	-49.796091	0.000487	-0.001669
4.975000	-49.796116	0.000487	-0.001669
5.000000	-49.796140	0.000487	-0.001669
5.025000	-49.796165	0.000487	-0.001669
5.050000	-49.796189	0.000487	-0.001669
5.075000	-49.796214	0.000487	-0.001669
5.100000	-49.796238	0.000487	-0.001669
5.125000	-49.796263	0.000487	-0.001669
5.150000	-49.796287	0.000487	-0.001669
5.175000	-49.796312	0.000487	-0.001669
5.200000	-49.796336	0.000487	-0.001669
5.225000	-49.796361	0.000487	-0.001669
5.250000	-49.796386	0.000487	-0.001669
5.275000	-49.796410	0.000487	-0.001669
5.300000	-49.796435	0.000487	-0.001669
5.325000	-49.796459	0.000487	-0.001669
5.350000	-49.796484	0.000487	-0.001669
5.375000	-49.796509	0.000487	-0.001669
5.400000	-49.796533	0.000487	-0.001669
5.425000	-49.796558	0.000487	-0.001669
5.450000	-49.796582	0.000487	-0.001669
5.475000	-49.796607	0.000487	-0.001669
5.500000	-49.796632	0.000487	-0.001669
5.525000	-49.796656	0.000487	-0.001669
5.550000	-49.796681	0.000487	-0.001669
5.575000	-49.796706	0.000487	-0.001669
5.600000	-49.796730	0.000487	-0.001669
5.625000	-49.796755	0.000487	-0.001669
5.650000	-49.796779	0.000487	-0.001668
5.675000	-49.796804	0.000487	-0.001668
5.700000	-49.796829	0.000487	-0.001668
5.725000	-49.796853	0.000487	-0.001668
5.750000	-49.796878	0.000487	-0.001668
5.775000	-49.796903	0.000487	-0.001668
5.800000	-49.796927	0.000487	-0.001668
5.825000	-49.796952	0.000487	-0.001668
5.850000	-49.796977	0.000487	-0.001668
5.875000	-49.797002	0.000487	-0.001668
5.900000	-49.797026	0.000487	-0.001668
5.925000	-49.797051	0.000487	-0.001668
5.950000	-49.797076	0.000487	-0.001668
5.975000	-49.797100	0.000487	-0.001668
6.000000	-49.797125	0.000487	-0.001668
6.025000	-49.797150	0.000487	-0.001668
6.050000	-49.797175	0.000487	-0.001668
6.075000	-49.797199	0.000487	-0.001668
6.100000	-49.797224	0.000487	-0.001668
6.125000	-49.797249	0.000487	-0.001668
6.150000	-49.797273	0.000487	-0.001668
6.175000	-49.797298	0.000487	-0.001668
6.200000	-49.797323	0.000487	-0.001668
6.225000	-49.797348	0.000487	-0.001668
6.250000	-49.797373	0.000487	-0.001668
6.275000	-49.797397	0.000487	-0.001668
6.300000	-49.797422	0.000487	-0.001668
6.325000	-49.797447	0.000487	-0.001668
6.350000	-49.797472	0.000487	-0.001668
6.375000	-49.797496	0.000487	-0.001668
6.400000	-49.797521	0.000487	-0.001668
6.425000	-49.797546	0.000487	-0.001668
6.450000	-49.797571	0.000487	-0.001668
6.475000	-49.797596	0.000487	-0.001668
6.500000	-49.797620	0.000487	-0.001668
6.525000	-49.797645	0.000487	-0.001668
6.550000	-49.797670	0.000487	-0.001668
6.575000	-49.797695	0.000487	-0.001668
6.600000	-49.797720	0.000487	-0.001668
6.625000	-49.797744	0.000487	-0.001668
6.650000	-49.797769	0.000487	-0.001668
6.675000	-49.797794	0.000487	-0.001668
6.700000	-49.797819	0.000487	-0.001668
6.725000	-49.797844	0.000487	-0.001668
6.750000	-49.797869	0.000487	-0.001668
6.775000	-49.797894	0.000487	-0.001668
6.800000	-49.797918	0.000487	-0.001668
6.825000	-49.797943	0.000487	-0.001668
6.850000	-49.797968	0.000487	-0.001668
6.875000	-49.797993	0.000487	-0.001668
6.900000	-49.798018	0.000487	-0.001668
6.925000	-49.798043	0.000487	-0.001668
6.950000	-49.798068	0.000487	-0.001668
6.975000	-49.798093	0.000487	-0.001668
7.000000	-49.798117	0.000487	-0.001668
7.025000	-49.798142	0.000487	-0.001668
7.050000	-49.798167	0.000487	-0.001668
7.075000	-49.798192	0.000487	-0.001668
7.100000	-49.798217	0.000487	-0.001668
7.125000	-49.798242	0.000487	-0.001668
7.150000	-49.798267	0.000487	-0.001668
7.175000	-49.798292	0.000487	-0.001668
7.200000	-49.798317	0.000487	-0.001668
7.225000	-49.798342	0.000487	-0.001667
7.250000	-49.798366	0.000487	-0.001667
7.275000	-49.798391	0.000487	-0.001667
7.300000	-49.798416	0.000487	-0.001667
7.325000	-49.798441	0.000487	-0.001667
7.350000	-49.798466	0.000487	-0.001667
7.375000	-49.798491	0.000487	-0.001667
7.400000	-49.798516	0.000487	-0.001667
7.425000	-49.798541	0.000487	-0.001667
7.450000	-49.798566	0.000487	-0.001667
7.475000	-49.798591	0.000487	-0.001667
7.500000	-49.798616	0.000487	-0.001667
7.525000	-49.798641	0.000487	-0.001667
7.550000	-49.798666	0.000487	-0.001667
7.575000	-49.798691	0.000487	-0.001667
7.600000	-49.798716	0.000487	-0.001667
7.625000	-49.798741	0.000487	-0.001667
7.650000	-49.798766	0.000487	-0.001667
7.675000	-49.798791	0.000487	-0.001667
7.700000	-49.798816	0.000487	-0.001667
7.725000	-49.798841	0.000487	-0.001667
7.750000	-49.798866	0.000487	-0.001667
7.775000	-49.798891	0.000487	-0.001667
7.800000	-49.798916	0.000487	-0.001667
7.825000	-49.798941	0.000487	-0.001667
7.850000	-49.798966	0.000487	-0.001667
7.875000	-49.798991	0.000487	-0.001667
7.900000	-49.799016	0.000486	-0.001667
7.925000	-49.799041	0.000486	-0.001667
7.950000	-49.799066	0.000486	-0.001667
7.975000	-49.799091	0.000486	-0.001667
8.000000	-49.799116	0.000486	-0.001667
8.025000	-49.799141	0.000486	-0.001667
8.050000	-49.799166	0.000486	-0.001667
8.075000	-49.799191	0.000486	-0.001667
8.100000	-49.799216	0.000486	-0.001667
8.125000	-49.799241	0.000486	-0.001667
8.150000	-49.799266	0.000486	-0.001667
8.175000	-49.799291	0.000486	-0.001667
8.200000	-49.799316	0.000486	-0.001667
8.225000	-49.799341	0.000486	-0.001667
8.250000	-49.799366	0.000486	-0.001667
8.275000	-49.799391	0.000486	-0.001667
8.300000	-49.799416	0.000486	-0.001667
8.325000	-49.799441	0.000486	-0.001667
8.350000	-49.799466	0.000486	-0.001667
8.375000	-49.799491	0.000486	-0.001667
8.400000	-49.799516	0.000486	-0.001667
8.425000	-49.799541	0.000486	-0.001667
8.450000	-49.799566	0.000486	-0.001667
8.475000	-49.799591	0.000486	-0.001667
8.500000	-49.799616	0.000486	-0.001667
8.525000	-49.799641	0.000486	-0.001667
8.550000	-49.799666	0.000486	-0.001667
8.575000	-49.799691	0.000486	-0.001667
8.600000	-49.799717	0.000486	-0.001667
8.625000	-49.799742	0.000486	-0.001667
8.650000	-49.799767	0.000486	-0.001667
8.675000	-49.799792	0.000486	-0.001667
8.700000	-49.799817	0.000486	-0.001667
8.725000	-49.799842	0.000486	-0.001667
8.750000	-49.799867	0.000486	-0.001667
8.775000	-49.799892	0.000486	-0.001666
8.800000	-49.799917	0.000486	-0.001666
8.825000	-49.799942	0.000486	-0.001666
8.850000	-49.799967	0.000486	-0.001666
8.875000	-49.799992	0.000486	-0.001666
8.900000	-49.800017	0.000486	-0.001666
8.925000	-49.800042	0.000486	-0.001666
8.950000	-49.800067	0.000486	-0.001666
8.975000	-49.800093	0.000486	-0.001666
9.000000	-49.800118	0.000486	-0.001666
9.025000	-49.800143	0.000486	-0.001666
9.050000	-49.800168	0.000486	-0.001666
9.075000	-49.800193	0.000486	-0.001666
9.100000	-49.800218	0.000486	-0.001666
9.125000	-49.800243	0.000486	-0.001666
9.150000	-49.800268	0.000486	-0.001666
9.175000	-49.800293	0.000486	-0.001666
9.200000	-49.800318	0.000486	-0.001666
9.225000	-49.800343	0.000486	-0.001666
9.250000	-49.800368	0.000486	-0.001666
9.275000	-49.800394	0.000486	-0.001666
9.300000	-49.800419	0.000486	-0.001666
9.325000	-49.800444	0.000486	-0.001666
9.350000	-49.800469	0.000486	-0.001666
9.375000	-49.800494	0.000486	-0.001666
9.400000	-49.800519	0.000486	-0.001666
9.425000	-49.800544	0.000486	-0.001666
9.450000	-49.800569	0.000486	-0.001666
9.475000	-49.800594	0.000486	-0.001666
9.500000	-49.800619	0.000486	-0.001666
9.525000	-49.800644	0.000486	-0.001666
9.550000	-49.800669	0.000486	-0.001666
9.575000	-49.800695	0.000486	-0.001666
9.600000	-49.800720	0.000486	-0.001666
9.625000	-49.800745	0.000486	-0.001666
9.650000	-49.800770	0.000486	-0.001666
9.675000	-49.800795	0.000486	-0.001666
9.700000	-49.800820	0.000486	-0.001666
9.725000	-49.800845	0.000486	-0.001666
9.750000	-49.800870	0.000486	-0.001666
9.775000	-49.800895	0.000486	-0.001666
9.800000	-49.800920	0.000486	-0.001666
9.825000	-49.800945	0.000486	-0.001666
9.850000	-49.800970	0.000486	-0.001666
9.875000	-49.800996	0.000486	-0.001666
9.900000	-49.801021	0.000486	-0.001666
9.925000	-49.801046	0.000486	-0.001666
9.950000	-49.801071	0.000486	-0.001666
9.975000	-49.801096	0.000486	-0.001666
10.000000	-49.801121	0.000486	-0.001666
10.025000	-49.801146	0.000486	-0.001666
10.050000	-49.801171	0.000486	-0.001666
10.075000	-49.801196	0.000486	-0.001666
10.100000	-49.801221	0.000486	-0.001666
10.125000	-49.801246	0.000486	-0.001666
10.150000	-49.801271	0.000486	-0.001666
10.175000	-49.801296	0.000486	-0.001666
10.200000	-49.801322	0.000486	-0.001666
10.225000	-49.801347	0.000486	-0.001666
10.250000	-49.801372	0.000486	-0.001666
10.275000	-49.801397	0.000486	-0.001666
10.300000	-49.801422	0.000486	-0.001666
10.325000	-49.801446	0.000486	-0.001666
10.350000	-49.801468	0.000486	-0.001666
10.375000	-49.801484	0.000486	-0.001665
10.400000	-49.801486	0.000486	-0.001665
10.425000	-49.801464	0.000486	-0.001665
10.450000	-49.801402	0.000486	-0.001665
10.475000	-49.801282	0.000486	-0.001665
10.500000	-49.801080	0.000486	-0.001665
10.525000	-49.800767	0.000486	-0.001666
10.550000	-49.800310	0.000486	-0.001666
10.575000	-49.799672	0.000486	-0.001666
10.600000	-49.798813	0.000486	-0.001666
10.625000	-49.797686	0.000486	-0.001666
10.650000	-49.796244	0.000486	-0.001667
10.675000	-49.794434	0.000486	-0.001667
10.700000	-49.792202	0.000486	-0.001668
10.725000	-49.789492	0.000486	-0.001669
10.750000	-49.786243	0.000486	-0.001670
10.775000	-49.782395	0.000486	-0.001672
10.800000	-49.777886	0.000486	-0.001673
10.825000	-49.772652	0.000486	-0.001675
10.850000	-49.766628	0.000486	-0.001678
10.875000	-49.759750	0.000486	-0.001681
10.900000	-49.751953	0.000486	-0.001684
10.925000	-49.743172	0.000486	-0.001688
10.950000	-49.733343	0.000486	-0.001693
10.975000	-49.722401	0.000486	-0.001698
11.000000	-49.710284	0.000486	-0.001703
11.025000	-49.696930	0.000486	-0.001710
11.050000	-49.682279	0.000486	-0.001717
11.075000	-49.666270	0.000486	-0.001725
11.100000	-49.648847	0.000486	-0.001734
11.125000	-49.629953	0.000486	-0.001744
11.150000	-49.609534	0.000486	-0.001755
11.175000	-49.587539	0.000486	-0.001766
11.200000	-49.563916	0.000486	-0.001779
11.225000	-49.538618	0.000486	-0.001793
11.250000	-49.511598	0.000486	-0.001808
11.275000	-49.482813	0.000486	-0.001825
11.300000	-49.452221	0.000486	-0.001842
11.325000	-49.419782	0.000486	-0.001862
11.350000	-49.385459	0.000486	-0.001882
11.375000	-49.349216	0.000486	-0.001904
11.400000	-49.311020	0.000486	-0.001927
11.425000	-49.270840	0.000486	-0.001952
11.450000	-49.228647	0.000486	-0.001979
11.475000	-49.184414	0.000486	-0.002008
11.500000	-49.138115	0.000486	-0.002038
11.525000	-49.089727	0.000486	-0.002070
11.550000	-49.039228	0.000486	-0.002104
11.575000	-48.986597	0.000486	-0.002140
11.600000	-48.931809	0.000486	-0.002178
11.625000	-48.874822	0.000486	-0.002220
11.650000	-48.815606	0.000486	-0.002265
11.675000	-48.754136	0.000486	-0.002314
11.700000	-48.690391	0.000486	-0.002365
11.725000	-48.624350	0.000486	-0.002420
11.750000	-48.555999	0.000486	-0.002478
11.775000	-48.485320	0.000486	-0.002540
11.800000	-48.412301	0.000486	-0.002605
11.825000	-48.336927	0.000486	-0.002674
11.850000	-48.259185	0.000486	-0.002746
11.875000	-48.179063	0.000486	-0.002822
11.900000	-48.096548	0.000486	-0.002902
11.925000	-48.011626	0.000487	-0.002986
11.950000	-47.924284	0.000487	-0.003075
11.975000	-47.834456	0.000487	-0.003170
12.000000	-47.742091	0.000487	-0.003272
12.025000	-47.647149	0.000487	-0.003382
12.050000	-47.549594	0.000487	-0.003498
12.075000	-47.449392	0.000487	-0.003621
12.100000	-47.346512	0.000487	-0.003752
12.125000	-47.240920	0.000487	-0.003889
12.150000	-47.132583	0.000487	-0.004034
12.175000	-47.021465	0.000487	-0.004187
12.200000	-46.907531	0.000488	-0.004348
12.225000	-46.790659	0.000488	-0.004521
12.250000	-46.670740	0.000488	-0.004708
12.275000	-46.547682	0.000488	-0.004908
12.300000	-46.421400	0.000488	-0.005120
12.325000	-46.291808	0.000488	-0.005347
12.350000	-46.158821	0.000489	-0.005587
12.375000	-46.022348	0.000489	-0.005841
12.400000	-45.882297	0.000489	-0.006110
12.425000	-45.738438	0.000489	-0.006401
12.450000	-45.590559	0.000489	-0.006716
12.475000	-45.438471	0.000490	-0.007055
12.500000	-45.281986	0.000490	-0.007417
12.525000	-45.120914	0.000490	-0.007805
12.550000	-44.955058	0.000490	-0.008220
12.575000	-44.784148	0.000491	-0.008665
12.600000	-44.607749	0.000491	-0.009151
12.625000	-44.425480	0.000491	-0.009679
12.650000	-44.236965	0.000492	-0.010250
12.675000	-44.041816	0.000492	-0.010867
12.700000	-43.839623	0.000492	-0.011532
