time	voltage	cai	inat
0.000000	-65.000000	0.000003	-0.000002
0.025000	-66.546297	0.000011	-0.000002
0.050000	-67.623608	0.000011	-0.000001
0.075000	-68.397032	0.000010	-0.000001
0.100000	-68.953601	0.000009	-0.000000
0.125000	-69.354456	0.000008	-0.000000
0.150000	-69.643319	0.000008	-0.000000
0.175000	-69.851698	0.000007	-0.000000
0.200000	-70.002233	0.000007	-0.000000
0.225000	-70.111150	0.000007	-0.000000
0.250000	-70.190074	0.000006	-0.000000
0.275000	-70.247356	0.000006	-0.000000
0.300000	-70.288995	0.000006	-0.000000
0.325000	-70.319308	0.000006	-0.000000
0.350000	-70.341406	0.000006	-0.000000
0.375000	-70.357537	0.000006	-0.000000
0.400000	-70.369325	0.000006	-0.000000
0.425000	-70.377950	0.000006	-0.000000
0.450000	-70.384268	0.000006	-0.000000
0.475000	-70.388905	0.000006	-0.000000
0.500000	-70.392315	0.000006	-0.000000
0.525000	-70.394831	0.000006	-0.000000
0.550000	-70.396698	0.000006	-0.000000
0.575000	-70.398095	0.000006	-0.000000
0.600000	-70.399153	0.000006	-0.000000
0.625000	-70.399969	0.000006	-0.000000
0.650000	-70.400614	0.000006	-0.000000
0.675000	-70.401139	0.000006	-0.000000
0.700000	-70.401582	0.000006	-0.000000
0.725000	-70.401971	0.000006	-0.000000
0.750000	-70.402326	0.000006	-0.000000
0.775000	-70.402660	0.000006	-0.000000
0.800000	-70.402984	0.000006	-0.000000
0.825000	-70.403303	0.000006	-0.000000
0.850000	-70.403623	0.000006	-0.000000
0.875000	-70.403945	0.000006	-0.000000
0.900000	-70.404271	0.000006	-0.000000
0.925000	-70.404602	0.000006	-0.000000
0.950000	-70.404938	0.000006	-0.000000
0.975000	-70.405277	0.000006	-0.000000
1.000000	-70.405619	0.000006	-0.000000
1.025000	-70.405963	0.000006	-0.000000
1.050000	-70.406307	0.000006	-0.000000
1.075000	-70.406652	0.000006	-0.000000
1.100000	-70.406994	0.000006	-0.000000
1.125000	-70.407334	0.000006	-0.000000
1.150000	-70.407670	0.000006	-0.000000
1.175000	-70.408001	0.000006	-0.000000
1.200000	-70.408327	0.000006	-0.000000
1.225000	-70.408647	0.000006	-0.000000
1.250000	-70.408959	0.000006	-0.000000
1.275000	-70.409264	0.000006	-0.000000
1.300000	-70.409561	0.000006	-0.000000
1.325000	-70.409850	0.000006	-0.000000
1.350000	-70.410130	0.000006	-0.000000
1.375000	-70.410400	0.000006	-0.000000
1.400000	-70.410662	0.000006	-0.000000
1.425000	-70.410915	0.000006	-0.000000
1.450000	-70.411158	0.000006	-0.000000
1.475000	-70.411391	0.000006	-0.000000
1.500000	-70.411616	0.000006	-0.000000
1.525000	-70.411831	0.000006	-0.000000
1.550000	-70.412037	0.000006	-0.000000
1.575000	-70.412234	0.000006	-0.000000
1.600000	-70.412423	0.000006	-0.000000
1.625000	-70.412602	0.000006	-0.000000
1.650000	-70.412774	0.000006	-0.000000
1.675000	-70.412937	0.000006	-0.000000
1.700000	-70.413092	0.000006	-0.000000
1.725000	-70.413239	0.000006	-0.000000
1.750000	-70.413379	0.000006	-0.000000
1.775000	-70.413511	0.000006	-0.000000
1.800000	-70.413637	0.000006	-0.000000
1.825000	-70.413756	0.000006	-0.000000
1.850000	-70.413868	0.000006	-0.000000
1.875000	-70.413974	0.000006	-0.000000
1.900000	-70.414074	0.000006	-0.000000
1.925000	-70.414168	0.000006	-0.000000
1.950000	-70.414257	0.000006	-0.000000
1.975000	-70.414341	0.000006	-0.000000
2.000000	-70.414419	0.000006	-0.000000
2.025000	-70.414493	0.000006	-0.000000
2.050000	-70.414562	0.000006	-0.000000
2.075000	-70.414627	0.000006	-0.000000
2.100000	-70.414687	0.000006	-0.000000
2.125000	-70.414744	0.000006	-0.000000
2.150000	-70.414797	0.000006	-0.000000
2.175000	-70.414846	0.000006	-0.000000
2.200000	-70.414892	0.000006	-0.000000
2.225000	-70.414934	0.000006	-0.000000
2.250000	-70.414973	0.000006	-0.000000
2.275000	-70.414974	0.000006	-0.000000
2.300000	-70.414974	0.000006	-0.000000
2.325000	-70.414975	0.000006	-0.000000
2.350000	-70.414975	0.000006	-0.000000
2.375000	-70.414976	0.000006	-0.000000
2.400000	-70.414976	0.000006	-0.000000
2.425000	-70.414976	0.000006	-0.000000
2.450000	-70.414976	0.000006	-0.000000
2.475000	-70.414977	0.000006	-0.000000
2.500000	-70.414977	0.000006	-0.000000
2.525000	-70.414977	0.000006	-0.000000
2.550000	-70.414978	0.000006	-0.000000
2.575000	-70.414978	0.000006	-0.000000
2.600000	-70.414978	0.000006	-0.000000
2.625000	-70.414978	0.000006	-0.000000
2.650000	-70.414978	0.000006	-0.000000
2.675000	-70.414979	0.000006	-0.000000
2.700000	-70.414979	0.000006	-0.000000
2.725000	-70.414979	0.000006	-0.000000
2.750000	-70.414979	0.000006	-0.000000
2.775000	-70.414979	0.000006	-0.000000
2.800000	-70.414980	0.000006	-0.000000
2.825000	-70.414980	0.000006	-0.000000
2.850000	-70.414980	0.000006	-0.000000
2.875000	-70.414980	0.000006	-0.000000
2.900000	-70.414980	0.000006	-0.000000
2.925000	-70.414981	0.000006	-0.000000
2.950000	-70.414981	0.000006	-0.000000
2.975000	-70.414981	0.000006	-0.000000
3.000000	-70.414981	0.000006	-0.000000
3.025000	-70.414981	0.000006	-0.000000
3.050000	-70.414981	0.000006	-0.000000
3.075000	-70.414982	0.000006	-0.000000
3.100000	-70.414982	0.000006	-0.000000
3.125000	-70.414982	0.000006	-0.000000
3.150000	-70.414982	0.000006	-0.000000
3.175000	-70.414982	0.000006	-0.000000
3.200000	-70.414982	0.000006	-0.000000
3.225000	-70.414983	0.000006	-0.000000
3.250000	-70.414983	0.000006	-0.000000
3.275000	-70.414983	0.000006	-0.000000
3.300000	-70.414983	0.000006	-0.000000
3.325000	-70.414983	0.000006	-0.000000
3.350000	-70.414983	0.000006	-0.000000
3.375000	-70.414984	0.000006	-0.000000
3.400000	-70.414984	0.000006	-0.000000
3.425000	-70.414984	0.000006	-0.000000
3.450000	-70.414984	0.000006	-0.000000
3.475000	-70.414984	0.000006	-0.000000
3.500000	-70.414984	0.000006	-0.000000
3.525000	-70.414984	0.000006	-0.000000
3.550000	-70.414985	0.000006	-0.000000
3.575000	-70.414985	0.000006	-0.000000
3.600000	-70.414985	0.000006	-0.000000
3.625000	-70.414985	0.000006	-0.000000
3.650000	-70.414985	0.000006	-0.000000
3.675000	-70.414985	0.000006	-0.000000
3.700000	-70.414985	0.000006	-0.000000
3.725000	-70.414986	0.000006	-0.000000
3.750000	-70.414986	0.000006	-0.000000
3.775000	-70.414986	0.000006	-0.000000
3.800000	-70.414986	0.000006	-0.000000
3.825000	-70.414986	0.000006	-0.000000
3.850000	-70.414986	0.000006	-0.000000
3.875000	-70.414986	0.000006	-0.000000
3.900000	-70.414987	0.000006	-0.000000
3.925000	-70.414987	0.000006	-0.000000
3.950000	-70.414987	0.000006	-0.000000
3.975000	-70.414987	0.000006	-0.000000
4.000000	-70.414987	0.000006	-0.000000
4.025000	-70.414987	0.000006	-0.000000
4.050000	-70.414987	0.000006	-0.000000
4.075000	-70.414987	0.000006	-0.000000
4.100000	-70.414988	0.000006	-0.000000
4.125000	-70.414988	0.000006	-0.000000
4.150000	-70.414988	0.000006	-0.000000
4.175000	-70.414988	0.000006	-0.000000
4.200000	-70.414988	0.000006	-0.000000
4.225000	-70.414988	0.000006	-0.000000
4.250000	-70.414988	0.000006	-0.000000
4.275000	-70.414989	0.000006	-0.000000
4.300000	-70.414989	0.000006	-0.000000
4.325000	-70.414989	0.000006	-0.000000
4.350000	-70.414989	0.000006	-0.000000
4.375000	-70.414989	0.000006	-0.000000
4.400000	-70.414989	0.000006	-0.000000
4.425000	-70.414989	0.000006	-0.000000
4.450000	-70.414989	0.000006	-0.000000
4.475000	-70.414990	0.000006	-0.000000
4.500000	-70.414990	0.000006	-0.000000
4.525000	-70.414990	0.000006	-0.000000
4.550000	-70.414990	0.000006	-0.000000
4.575000	-70.414990	0.000006	-0.000000
4.600000	-70.414990	0.000006	-0.000000
4.625000	-70.414990	0.000006	-0.000000
4.650000	-70.414990	0.000006	-0.000000
4.675000	-70.414991	0.000006	-0.000000
4.700000	-70.414991	0.000006	-0.000000
4.725000	-70.414991	0.000006	-0.000000
4.750000	-70.414991	0.000006	-0.000000
4.775000	-70.414991	0.000006	-0.000000
4.800000	-70.414991	0.000006	-0.000000
4.825000	-70.414991	0.000006	-0.000000
4.850000	-70.414992	0.000006	-0.000000
4.875000	-70.414992	0.000006	-0.000000
4.900000	-70.414992	0.000006	-0.000000
4.925000	-70.414992	0.000006	-0.000000
4.950000	-70.414992	0.000006	-0.000000
4.975000	-70.414992	0.000006	-0.000000
5.000000	-70.414992	0.000006	-0.000000
5.025000	-70.414992	0.000006	-0.000000
5.050000	-70.414992	0.000006	-0.000000
5.075000	-70.414993	0.000006	-0.000000
5.100000	-70.414993	0.000006	-0.000000
5.125000	-70.414993	0.000006	-0.000000
5.150000	-70.414993	0.000006	-0.000000
5.175000	-70.414993	0.000006	-0.000000
5.200000	-70.414993	0.000006	-0.000000
5.225000	-70.414993	0.000006	-0.000000
5.250000	-70.414993	0.000006	-0.000000
5.275000	-70.414994	0.000006	-0.000000
5.300000	-70.414994	0.000006	-0.000000
5.325000	-70.414994	0.000006	-0.000000
5.350000	-70.414994	0.000006	-0.000000
5.375000	-70.414994	0.000006	-0.000000
5.400000	-70.414994	0.000006	-0.000000
5.425000	-70.414994	0.000006	-0.000000
5.450000	-70.414994	0.000006	-0.000000
5.475000	-70.414995	0.000006	-0.000000
5.500000	-70.414995	0.000006	-0.000000
5.525000	-70.414995	0.000006	-0.000000
5.550000	-70.414995	0.000006	-0.000000
5.575000	-70.414995	0.000006	-0.000000
5.600000	-70.414995	0.000006	-0.000000
5.625000	-70.414995	0.000006	-0.000000
5.650000	-70.414995	0.000006	-0.000000
5.675000	-70.414996	0.000006	-0.000000
5.700000	-70.414996	0.000006	-0.000000
5.725000	-70.414996	0.000006	-0.000000
5.750000	-70.414996	0.000006	-0.000000
5.775000	-70.414996	0.000006	-0.000000
5.800000	-70.414996	0.000006	-0.000000
5.825000	-70.414996	0.000006	-0.000000
5.850000	-70.414996	0.000006	-0.000000
5.875000	-70.414996	0.000006	-0.000000
5.900000	-70.414997	0.000006	-0.000000
5.925000	-70.414997	0.000006	-0.000000
5.950000	-70.414997	0.000006	-0.000000
5.975000	-70.414997	0.000006	-0.000000
6.000000	-70.414997	0.000006	-0.000000
6.025000	-70.414997	0.000006	-0.000000
6.050000	-70.414997	0.000006	-0.000000
6.075000	-70.414997	0.000006	-0.000000
6.100000	-70.414998	0.000006	-0.000000
6.125000	-70.414998	0.000006	-0.000000
6.150000	-70.414998	0.000006	-0.000000
6.175000	-70.414998	0.000006	-0.000000
6.200000	-70.414998	0.000006	-0.000000
6.225000	-70.414998	0.000006	-0.000000
6.250000	-70.414998	0.000006	-0.000000
6.275000	-70.414998	0.000006	-0.000000
6.300000	-70.414998	0.000006	-0.000000
6.325000	-70.414999	0.000006	-0.000000
6.350000	-70.414999	0.000006	-0.000000
6.375000	-70.414999	0.000006	-0.000000
6.400000	-70.414999	0.000006	-0.000000
6.425000	-70.414999	0.000006	-0.000000
6.450000	-70.414999	0.000006	-0.000000
6.475000	-70.414999	0.000006	-0.000000
6.500000	-70.414999	0.000006	-0.000000
6.525000	-70.414999	0.000006	-0.000000
6.550000	-70.415000	0.000006	-0.000000
6.575000	-70.415000	0.000006	-0.000000
6.600000	-70.415000	0.000006	-0.000000
6.625000	-70.415000	0.000006	-0.000000
6.650000	-70.415000	0.000006	-0.000000
6.675000	-70.415000	0.000006	-0.000000
6.700000	-70.415000	0.000006	-0.000000
6.725000	-70.415000	0.000006	-0.000000
6.750000	-70.415001	0.000006	-0.000000
6.775000	-70.415001	0.000006	-0.000000
6.800000	-70.415001	0.000006	-0.000000
6.825000	-70.415001	0.000006	-0.000000
6.850000	-70.415001	0.000006	-0.000000
6.875000	-70.415001	0.000006	-0.000000
6.900000	-70.415001	0.000006	-0.000000
6.925000	-70.415001	0.000006	-0.000000
6.950000	-70.415001	0.000006	-0.000000
6.975000	-70.415002	0.000006	-0.000000
7.000000	-70.415002	0.000006	-0.000000
7.025000	-70.415002	0.000006	-0.000000
7.050000	-70.415002	0.000006	-0.000000
7.075000	-70.415002	0.000006	-0.000000
7.100000	-70.415002	0.000006	-0.000000
7.125000	-70.415002	0.000006	-0.000000
7.150000	-70.415002	0.000006	-0.000000
7.175000	-70.415002	0.000006	-0.000000
7.200000	-70.415003	0.000006	-0.000000
7.225000	-70.415003	0.000006	-0.000000
7.250000	-70.415003	0.000006	-0.000000
7.275000	-70.415003	0.000006	-0.000000
7.300000	-70.415003	0.000006	-0.000000
7.325000	-70.415003	0.000006	-0.000000
7.350000	-70.415003	0.000006	-0.000000
7.375000	-70.415003	0.000006	-0.000000
7.400000	-70.415003	0.000006	-0.000000
7.425000	-70.415004	0.000006	-0.000000
7.450000	-70.415004	0.000006	-0.000000
7.475000	-70.415004	0.000006	-0.000000
7.500000	-70.415004	0.000006	-0.000000
7.525000	-70.415004	0.000006	-0.000000
7.550000	-70.415004	0.000006	-0.000000
7.575000	-70.415004	0.000006	-0.000000
7.600000	-70.415004	0.000006	-0.000000
7.625000	-70.415004	0.000006	-0.000000
7.650000	-70.415005	0.000006	-0.000000
7.675000	-70.415005	0.000006	-0.000000
7.700000	-70.415005	0.000006	-0.000000
7.725000	-70.415005	0.000006	-0.000000
7.750000	-70.415005	0.000006	-0.000000
7.775000	-70.415005	0.000006	-0.000000
7.800000	-70.415005	0.000006	-0.000000
7.825000	-70.415005	0.000006	-0.000000
7.850000	-70.415005	0.000006	-0.000000
7.875000	-70.415006	0.000006	-0.000000
7.900000	-70.415006	0.000006	-0.000000
7.925000	-70.415006	0.000006	-0.000000
7.950000	-70.415006	0.000006	-0.000000
7.975000	-70.415006	0.000006	-0.000000
8.000000	-70.415006	0.000006	-0.000000
8.025000	-70.415006	0.000006	-0.000000
8.050000	-70.415006	0.000006	-0.000000
8.075000	-70.415006	0.000006	-0.000000
8.100000	-70.415007	0.000006	-0.000000
8.125000	-70.415007	0.000006	-0.000000
8.150000	-70.415007	0.000006	-0.000000
8.175000	-70.415007	0.000006	-0.000000
8.200000	-70.415007	0.000006	-0.000000
8.225000	-70.415007	0.000006	-0.000000
8.250000	-70.415007	0.000006	-0.000000
8.275000	-70.415007	0.000006	-0.000000
8.300000	-70.415007	0.000006	-0.000000
8.325000	-70.415008	0.000006	-0.000000
8.350000	-70.415008	0.000006	-0.000000
8.375000	-70.415008	0.000006	-0.000000
8.400000	-70.415008	0.000006	-0.000000
8.425000	-70.415008	0.000006	-0.000000
8.450000	-70.415008	0.000006	-0.000000
8.475000	-70.415008	0.000006	-0.000000
8.500000	-70.415008	0.000006	-0.000000
8.525000	-70.415008	0.000006	-0.000000
8.550000	-70.415009	0.000006	-0.000000
8.575000	-70.415009	0.000006	-0.000000
8.600000	-70.415009	0.000006	-0.000000
8.625000	-70.415009	0.000006	-0.000000
8.650000	-70.415009	0.000006	-0.000000
8.675000	-70.415009	0.000006	-0.000000
8.700000	-70.415009	0.000006	-0.000000
8.725000	-70.415009	0.000006	-0.000000
8.750000	-70.415009	0.000006	-0.000000
8.775000	-70.415010	0.000006	-0.000000
8.800000	-70.415010	0.000006	-0.000000
8.825000	-70.415010	0.000006	-0.000000
8.850000	-70.415010	0.000006	-0.000000
8.875000	-70.415010	0.000006	-0.000000
8.900000	-70.415010	0.000006	-0.000000
8.925000	-70.415010	0.000006	-0.000000
8.950000	-70.415010	0.000006	-0.000000
8.975000	-70.415010	0.000006	-0.000000
9.000000	-70.415011	0.000006	-0.000000
9.025000	-70.415011	0.000006	-0.000000
9.050000	-70.415011	0.000006	-0.000000
9.075000	-70.415011	0.000006	-0.000000
9.100000	-70.415011	0.000006	-0.000000
9.125000	-70.415011	0.000006	-0.000000
9.150000	-70.415011	0.000006	-0.000000
9.175000	-70.415011	0.000006	-0.000000
9.200000	-70.415011	0.000006	-0.000000
9.225000	-70.415012	0.000006	-0.000000
9.250000	-70.415012	0.000006	-0.000000
9.275000	-70.415012	0.000006	-0.000000
9.300000	-70.415012	0.000006	-0.000000
9.325000	-70.415012	0.000006	-0.000000
9.350000	-70.415012	0.000006	-0.000000
9.375000	-70.415012	0.000006	-0.000000
9.400000	-70.415012	0.000006	-0.000000
9.425000	-70.415012	0.000006	-0.000000
9.450000	-70.415012	0.000006	-0.000000
9.475000	-70.415013	0.000006	-0.000000
9.500000	-70.415013	0.000006	-0.000000
9.525000	-70.415013	0.000006	-0.000000
9.550000	-70.415013	0.000006	-0.000000
9.575000	-70.415013	0.000006	-0.000000
9.600000	-70.415013	0.000006	-0.000000
9.625000	-70.415013	0.000006	-0.000000
9.650000	-70.415013	0.000006	-0.000000
9.675000	-70.415013	0.000006	-0.000000
9.700000	-70.415014	0.000006	-0.000000
9.725000	-70.415014	0.000006	-0.000000
9.750000	-70.415014	0.000006	-0.000000
9.775000	-70.415014	0.000006	-0.000000
9.800000	-70.415014	0.000006	-0.000000
9.825000	-70.415014	0.000006	-0.000000
9.850000	-70.415014	0.000006	-0.000000
9.875000	-70.415014	0.000006	-0.000000
9.900000	-70.415014	0.000006	-0.000000
9.925000	-70.415015	0.000006	-0.000000
9.950000	-70.415015	0.000006	-0.000000
9.975000	-70.415015	0.000006	-0.000000
10.000000	-70.415015	0.000006	-0.000000
10.025000	-70.415015	0.000006	-0.000000
10.050000	-70.415015	0.000006	-0.000000
10.075000	-70.415015	0.000006	-0.000000
10.100000	-70.415015	0.000006	-0.000000
10.125000	-70.415015	0.000006	-0.000000
10.150000	-70.415015	0.000006	-0.000000
10.175000	-70.415016	0.000006	-0.000000
10.200000	-70.415016	0.000006	-0.000000
10.225000	-70.415016	0.000006	-0.000000
10.250000	-70.415016	0.000006	-0.000000
10.275000	-70.415016	0.000006	-0.000000
10.300000	-70.415016	0.000006	-0.000000
10.325000	-70.415015	0.000006	-0.000000
10.350000	-70.415011	0.000006	-0.000000
10.375000	-70.414998	0.000006	-0.000000
10.400000	-70.414966	0.000006	-0.000000
10.425000	-70.414900	0.000006	-0.000000
10.450000	-70.414780	0.000006	-0.000000
10.475000	-70.414579	0.000006	-0.000000
10.500000	-70.414263	0.000006	-0.000000
10.525000	-70.413794	0.000006	-0.000000
10.550000	-70.413127	0.000006	-0.000000
10.575000	-70.412211	0.000006	-0.000000
10.600000	-70.410990	0.000006	-0.000000
10.625000	-70.409402	0.000006	-0.000000
10.650000	-70.407381	0.000006	-0.000000
10.675000	-70.404859	0.000006	-0.000000
10.700000	-70.401762	0.000006	-0.000000
10.725000	-70.398014	0.000006	-0.000000
10.750000	-70.393536	0.000006	-0.000000
10.775000	-70.388247	0.000006	-0.000000
10.800000	-70.382065	0.000006	-0.000000
10.825000	-70.374906	0.000006	-0.000000
10.850000	-70.366688	0.000006	-0.000000
10.875000	-70.357326	0.000006	-0.000000
10.900000	-70.346736	0.000006	-0.000000
10.925000	-70.334836	0.000006	-0.000000
10.950000	-70.321545	0.000006	-0.000000
10.975000	-70.306780	0.000006	-0.000000
11.000000	-70.290465	0.000006	-0.000000
11.025000	-70.272522	0.000006	-0.000000
11.050000	-70.252878	0.000006	-0.000000
11.075000	-70.231459	0.000006	-0.000000
11.100000	-70.208197	0.000006	-0.000000
11.125000	-70.183026	0.000006	-0.000000
11.150000	-70.155883	0.000006	-0.000000
11.175000	-70.126706	0.000006	-0.000000
11.200000	-70.095441	0.000006	-0.000000
11.225000	-70.062032	0.000006	-0.000000
11.250000	-70.026431	0.000006	-0.000000
11.275000	-69.988591	0.000006	-0.000000
11.300000	-69.948468	0.000006	-0.000000
11.325000	-69.906023	0.000006	-0.000000
11.350000	-69.861222	0.000006	-0.000000
11.375000	-69.814030	0.000006	-0.000000
11.400000	-69.764420	0.000006	-0.000000
11.425000	-69.712367	0.000006	-0.000000
11.450000	-69.657848	0.000006	-0.000000
11.475000	-69.600846	0.000006	-0.000000
11.500000	-69.541344	0.000006	-0.000000
11.525000	-69.479333	0.000006	-0.000000
11.550000	-69.414802	0.000006	-0.000000
11.575000	-69.347747	0.000006	-0.000000
11.600000	-69.278165	0.000006	-0.000000
11.625000	-69.206057	0.000006	-0.000000
11.650000	-69.131426	0.000006	-0.000000
11.675000	-69.054279	0.000006	-0.000000
11.700000	-68.974624	0.000006	-0.000000
11.725000	-68.892472	0.000006	-0.000000
11.750000	-68.807839	0.000006	-0.000000
11.775000	-68.720739	0.000006	-0.000000
11.800000	-68.631191	0.000006	-0.000000
11.825000	-68.539216	0.000006	-0.000000
11.850000	-68.444837	0.000006	-0.000000
11.875000	-68.348077	0.000006	-0.000000
11.900000	-68.248963	0.000006	-0.000000
11.925000	-68.147524	0.000006	-0.000000
11.950000	-68.043788	0.000006	-0.000000
11.975000	-67.937787	0.000006	-0.000000
12.000000	-67.829554	0.000006	-0.000000
12.025000	-67.719122	0.000006	-0.000000
12.050000	-67.606527	0.000006	-0.000000
12.075000	-67.491804	0.000006	-0.000000
12.100000	-67.374991	0.000006	-0.000000
12.125000	-67.256126	0.000006	-0.000001
12.150000	-67.135249	0.000006	-0.000001
12.175000	-67.012398	0.000006	-0.000001
12.200000	-66.887615	0.000006	-0.000001
12.225000	-66.760941	0.000006	-0.000001
12.250000	-66.632416	0.000006	-0.000001
12.275000	-66.502085	0.000006	-0.000001
12.300000	-66.369988	0.000006	-0.000001
12.325000	-66.236169	0.000006	-0.000001
12.350000	-66.100671	0.000006	-0.000001
12.375000	-65.963537	0.000006	-0.000001
12.400000	-65.824812	0.000006	-0.000001
12.425000	-65.684538	0.000006	-0.000001
12.450000	-65.542759	0.000006	-0.000001
12.475000	-65.399518	0.000006	-0.000001
12.500000	-65.254860	0.000006	-0.000001
12.525000	-65.108827	0.000006	-0.000002
12.550000	-64.961464	0.000006	-0.000002
12.575000	-64.812813	0.000006	-0.000002
12.600000	-64.662916	0.000006	-0.000002
12.625000	-64.511817	0.000006	-0.000002
12.650000	-64.359557	0.000006	-0.000002
12.675000	-64.206179	0.000006	-0.000002
12.700000	-64.051724	0.000006	-0.000003
