time	voltage	cai	inat
0.000000	-65.000000	0.000001	-0.000002
0.025000	-66.542730	0.000010	-0.000002
0.050000	-67.618335	0.000010	-0.000001
0.075000	-68.390773	0.000009	-0.000001
0.100000	-68.946822	0.000008	-0.000000
0.125000	-69.347434	0.000007	-0.000000
0.150000	-69.636215	0.000006	-0.000000
0.175000	-69.844597	0.000006	-0.000000
0.200000	-69.995176	0.000006	-0.000000
0.225000	-70.104155	0.000005	-0.000000
0.250000	-70.183146	0.000005	-0.000000
0.275000	-70.240492	0.000005	-0.000000
0.300000	-70.282189	0.000005	-0.000000
0.325000	-70.312551	0.000005	-0.000000
0.350000	-70.334692	0.000005	-0.000000
0.375000	-70.350857	0.000005	-0.000000
0.400000	-70.362675	0.000005	-0.000000
0.425000	-70.371323	0.000005	-0.000000
0.450000	-70.377662	0.000005	-0.000000
0.475000	-70.382314	0.000005	-0.000000
0.500000	-70.385737	0.000005	-0.000000
0.525000	-70.388265	0.000005	-0.000000
0.550000	-70.390141	0.000005	-0.000000
0.575000	-70.391545	0.000005	-0.000000
0.600000	-70.392609	0.000005	-0.000000
0.625000	-70.393430	0.000005	-0.000000
0.650000	-70.394079	0.000005	-0.000000
0.675000	-70.394607	0.000005	-0.000000
0.700000	-70.395053	0.000005	-0.000000
0.725000	-70.395445	0.000005	-0.000000
0.750000	-70.395802	0.000005	-0.000000
0.775000	-70.396138	0.000005	-0.000000
0.800000	-70.396463	0.000005	-0.000000
0.825000	-70.396784	0.000005	-0.000000
0.850000	-70.397105	0.000005	-0.000000
0.875000	-70.397428	0.000005	-0.000000
0.900000	-70.397756	0.000005	-0.000000
0.925000	-70.398087	0.000005	-0.000000
0.950000	-70.398424	0.000005	-0.000000
0.975000	-70.398763	0.000005	-0.000000
1.000000	-70.399106	0.000005	-0.000000
1.025000	-70.399450	0.000005	-0.000000
1.050000	-70.399795	0.000005	-0.000000
1.075000	-70.400140	0.000005	-0.000000
1.100000	-70.400483	0.000005	-0.000000
1.125000	-70.400823	0.000005	-0.000000
1.150000	-70.401159	0.000005	-0.000000
1.175000	-70.401491	0.000005	-0.000000
1.200000	-70.401817	0.000005	-0.000000
1.225000	-70.402137	0.000005	-0.000000
1.250000	-70.402450	0.000005	-0.000000
1.275000	-70.402755	0.000005	-0.000000
1.300000	-70.403052	0.000005	-0.000000
1.325000	-70.403341	0.000005	-0.000000
1.350000	-70.403621	0.000005	-0.000000
1.375000	-70.403892	0.000005	-0.000000
1.400000	-70.404154	0.000005	-0.000000
1.425000	-70.404407	0.000005	-0.000000
1.450000	-70.404650	0.000005	-0.000000
1.475000	-70.404884	0.000005	-0.000000
1.500000	-70.405108	0.000005	-0.000000
1.525000	-70.405324	0.000005	-0.000000
1.550000	-70.405530	0.000005	-0.000000
1.575000	-70.405727	0.000005	-0.000000
1.600000	-70.405916	0.000005	-0.000000
1.625000	-70.406095	0.000005	-0.000000
1.650000	-70.406267	0.000005	-0.000000
1.675000	-70.406430	0.000005	-0.000000
1.700000	-70.406585	0.000005	-0.000000
1.725000	-70.406733	0.000005	-0.000000
1.750000	-70.406872	0.000005	-0.000000
1.775000	-70.407005	0.000005	-0.000000
1.800000	-70.407131	0.000005	-0.000000
1.825000	-70.407250	0.000005	-0.000000
1.850000	-70.407362	0.000005	-0.000000
1.875000	-70.407468	0.000005	-0.000000
1.900000	-70.407568	0.000005	-0.000000
1.925000	-70.407663	0.000005	-0.000000
1.950000	-70.407752	0.000005	-0.000000
1.975000	-70.407835	0.000005	-0.000000
2.000000	-70.407914	0.000005	-0.000000
2.025000	-70.407988	0.000005	-0.000000
2.050000	-70.408057	0.000005	-0.000000
2.075000	-70.408122	0.000005	-0.000000
2.100000	-70.408182	0.000005	-0.000000
2.125000	-70.408239	0.000005	-0.000000
2.150000	-70.408292	0.000005	-0.000000
2.175000	-70.408341	0.000005	-0.000000
2.200000	-70.408387	0.000005	-0.000000
2.225000	-70.408429	0.000005	-0.000000
2.250000	-70.408469	0.000005	-0.000000
2.275000	-70.408469	0.000005	-0.000000
2.300000	-70.408470	0.000005	-0.000000
2.325000	-70.408470	0.000005	-0.000000
2.350000	-70.408470	0.000005	-0.000000
2.375000	-70.408471	0.000005	-0.000000
2.400000	-70.408471	0.000005	-0.000000
2.425000	-70.408471	0.000005	-0.000000
2.450000	-70.408472	0.000005	-0.000000
2.475000	-70.408472	0.000005	-0.000000
2.500000	-70.408472	0.000005	-0.000000
2.525000	-70.408473	0.000005	-0.000000
2.550000	-70.408473	0.000005	-0.000000
2.575000	-70.408473	0.000005	-0.000000
2.600000	-70.408473	0.000005	-0.000000
2.625000	-70.408474	0.000005	-0.000000
2.650000	-70.408474	0.000005	-0.000000
2.675000	-70.408474	0.000005	-0.000000
2.700000	-70.408474	0.000005	-0.000000
2.725000	-70.408474	0.000005	-0.000000
2.750000	-70.408475	0.000005	-0.000000
2.775000	-70.408475	0.000005	-0.000000
2.800000	-70.408475	0.000005	-0.000000
2.825000	-70.408475	0.000005	-0.000000
2.850000	-70.408475	0.000005	-0.000000
2.875000	-70.408476	0.000005	-0.000000
2.900000	-70.408476	0.000005	-0.000000
2.925000	-70.408476	0.000005	-0.000000
2.950000	-70.408476	0.000005	-0.000000
2.975000	-70.408476	0.000005	-0.000000
3.000000	-70.408476	0.000005	-0.000000
3.025000	-70.408477	0.000005	-0.000000
3.050000	-70.408477	0.000005	-0.000000
3.075000	-70.408477	0.000005	-0.000000
3.100000	-70.408477	0.000005	-0.000000
3.125000	-70.408477	0.000005	-0.000000
3.150000	-70.408477	0.000005	-0.000000
3.175000	-70.408478	0.000005	-0.000000
3.200000	-70.408478	0.000005	-0.000000
3.225000	-70.408478	0.000005	-0.000000
3.250000	-70.408478	0.000005	-0.000000
3.275000	-70.408478	0.000005	-0.000000
3.300000	-70.408478	0.000005	-0.000000
3.325000	-70.408479	0.000005	-0.000000
3.350000	-70.408479	0.000005	-0.000000
3.375000	-70.408479	0.000005	-0.000000
3.400000	-70.408479	0.000005	-0.000000
3.425000	-70.408479	0.000005	-0.000000
3.450000	-70.408479	0.000005	-0.000000
3.475000	-70.408479	0.000005	-0.000000
3.500000	-70.408480	0.000005	-0.000000
3.525000	-70.408480	0.000005	-0.000000
3.550000	-70.408480	0.000005	-0.000000
3.575000	-70.408480	0.000005	-0.000000
3.600000	-70.408480	0.000005	-0.000000
3.625000	-70.408480	0.000005	-0.000000
3.650000	-70.408480	0.000005	-0.000000
3.675000	-70.408481	0.000005	-0.000000
3.700000	-70.408481	0.000005	-0.000000
3.725000	-70.408481	0.000005	-0.000000
3.750000	-70.408481	0.000005	-0.000000
3.775000	-70.408481	0.000005	-0.000000
3.800000	-70.408481	0.000005	-0.000000
3.825000	-70.408481	0.000005	-0.000000
3.850000	-70.408482	0.000005	-0.000000
3.875000	-70.408482	0.000005	-0.000000
3.900000	-70.408482	0.000005	-0.000000
3.925000	-70.408482	0.000005	-0.000000
3.950000	-70.408482	0.000005	-0.000000
3.975000	-70.408482	0.000005	-0.000000
4.000000	-70.408482	0.000005	-0.000000
4.025000	-70.408483	0.000005	-0.000000
4.050000	-70.408483	0.000005	-0.000000
4.075000	-70.408483	0.000005	-0.000000
4.100000	-70.408483	0.000005	-0.000000
4.125000	-70.408483	0.000005	-0.000000
4.150000	-70.408483	0.000005	-0.000000
4.175000	-70.408483	0.000005	-0.000000
4.200000	-70.408483	0.000005	-0.000000
4.225000	-70.408484	0.000005	-0.000000
4.250000	-70.408484	0.000005	-0.000000
4.275000	-70.408484	0.000005	-0.000000
4.300000	-70.408484	0.000005	-0.000000
4.325000	-70.408484	0.000005	-0.000000
4.350000	-70.408484	0.000005	-0.000000
4.375000	-70.408484	0.000005	-0.000000
4.400000	-70.408485	0.000005	-0.000000
4.425000	-70.408485	0.000005	-0.000000
4.450000	-70.408485	0.000005	-0.000000
4.475000	-70.408485	0.000005	-0.000000
4.500000	-70.408485	0.000005	-0.000000
4.525000	-70.408485	0.000005	-0.000000
4.550000	-70.408485	0.000005	-0.000000
4.575000	-70.408485	0.000005	-0.000000
4.600000	-70.408486	0.000005	-0.000000
4.625000	-70.408486	0.000005	-0.000000
4.650000	-70.408486	0.000005	-0.000000
4.675000	-70.408486	0.000005	-0.000000
4.700000	-70.408486	0.000005	-0.000000
4.725000	-70.408486	0.000005	-0.000000
4.750000	-70.408486	0.000005	-0.000000
4.775000	-70.408486	0.000005	-0.000000
4.800000	-70.408487	0.000005	-0.000000
4.825000	-70.408487	0.000005	-0.000000
4.850000	-70.408487	0.000005	-0.000000
4.875000	-70.408487	0.000005	-0.000000
4.900000	-70.408487	0.000005	-0.000000
4.925000	-70.408487	0.000005	-0.000000
4.950000	-70.408487	0.000005	-0.000000
4.975000	-70.408487	0.000005	-0.000000
5.000000	-70.408488	0.000005	-0.000000
5.025000	-70.408488	0.000005	-0.000000
5.050000	-70.408488	0.000005	-0.000000
5.075000	-70.408488	0.000005	-0.000000
5.100000	-70.408488	0.000005	-0.000000
5.125000	-70.408488	0.000005	-0.000000
5.150000	-70.408488	0.000005	-0.000000
5.175000	-70.408488	0.000005	-0.000000
5.200000	-70.408489	0.000005	-0.000000
5.225000	-70.408489	0.000005	-0.000000
5.250000	-70.408489	0.000005	-0.000000
5.275000	-70.408489	0.000005	-0.000000
5.300000	-70.408489	0.000005	-0.000000
5.325000	-70.408489	0.000005	-0.000000
5.350000	-70.408489	0.000005	-0.000000
5.375000	-70.408489	0.000005	-0.000000
5.400000	-70.408490	0.000005	-0.000000
5.425000	-70.408490	0.000005	-0.000000
5.450000	-70.408490	0.000005	-0.000000
5.475000	-70.408490	0.000005	-0.000000
5.500000	-70.408490	0.000005	-0.000000
5.525000	-70.408490	0.000005	-0.000000
5.550000	-70.408490	0.000005	-0.000000
5.575000	-70.408490	0.000005	-0.000000
5.600000	-70.408490	0.000005	-0.000000
5.625000	-70.408491	0.000005	-0.000000
5.650000	-70.408491	0.000005	-0.000000
5.675000	-70.408491	0.000005	-0.000000
5.700000	-70.408491	0.000005	-0.000000
5.725000	-70.408491	0.000005	-0.000000
5.750000	-70.408491	0.000005	-0.000000
5.775000	-70.408491	0.000005	-0.000000
5.800000	-70.408491	0.000005	-0.000000
5.825000	-70.408492	0.000005	-0.000000
5.850000	-70.408492	0.000005	-0.000000
5.875000	-70.408492	0.000005	-0.000000
5.900000	-70.408492	0.000005	-0.000000
5.925000	-70.408492	0.000005	-0.000000
5.950000	-70.408492	0.000005	-0.000000
5.975000	-70.408492	0.000005	-0.000000
6.000000	-70.408492	0.000005	-0.000000
6.025000	-70.408492	0.000005	-0.000000
6.050000	-70.408493	0.000005	-0.000000
6.075000	-70.408493	0.000005	-0.000000
6.100000	-70.408493	0.000005	-0.000000
6.125000	-70.408493	0.000005	-0.000000
6.150000	-70.408493	0.000005	-0.000000
6.175000	-70.408493	0.000005	-0.000000
6.200000	-70.408493	0.000005	-0.000000
6.225000	-70.408493	0.000005	-0.000000
6.250000	-70.408494	0.000005	-0.000000
6.275000	-70.408494	0.000005	-0.000000
6.300000	-70.408494	0.000005	-0.000000
6.325000	-70.408494	0.000005	-0.000000
6.350000	-70.408494	0.000005	-0.000000
6.375000	-70.408494	0.000005	-0.000000
6.400000	-70.408494	0.000005	-0.000000
6.425000	-70.408494	0.000005	-0.000000
6.450000	-70.408494	0.000005	-0.000000
6.475000	-70.408495	0.000005	-0.000000
6.500000	-70.408495	0.000005	-0.000000
6.525000	-70.408495	0.000005	-0.000000
6.550000	-70.408495	0.000005	-0.000000
6.575000	-70.408495	0.000005	-0.000000
6.600000	-70.408495	0.000005	-0.000000
6.625000	-70.408495	0.000005	-0.000000
6.650000	-70.408495	0.000005	-0.000000
6.675000	-70.408495	0.000005	-0.000000
6.700000	-70.408496	0.000005	-0.000000
6.725000	-70.408496	0.000005	-0.000000
6.750000	-70.408496	0.000005	-0.000000
6.775000	-70.408496	0.000005	-0.000000
6.800000	-70.408496	0.000005	-0.000000
6.825000	-70.408496	0.000005	-0.000000
6.850000	-70.408496	0.000005	-0.000000
6.875000	-70.408496	0.000005	-0.000000
6.900000	-70.408497	0.000005	-0.000000
6.925000	-70.408497	0.000005	-0.000000
6.950000	-70.408497	0.000005	-0.000000
6.975000	-70.408497	0.000005	-0.000000
7.000000	-70.408497	0.000005	-0.000000
7.025000	-70.408497	0.000005	-0.000000
7.050000	-70.408497	0.000005	-0.000000
7.075000	-70.408497	0.000005	-0.000000
7.100000	-70.408497	0.000005	-0.000000
7.125000	-70.408498	0.000005	-0.000000
7.150000	-70.408498	0.000005	-0.000000
7.175000	-70.408498	0.000005	-0.000000
7.200000	-70.408498	0.000005	-0.000000
7.225000	-70.408498	0.000005	-0.000000
7.250000	-70.408498	0.000005	-0.000000
7.275000	-70.408498	0.000005	-0.000000
7.300000	-70.408498	0.000005	-0.000000
7.325000	-70.408498	0.000005	-0.000000
7.350000	-70.408499	0.000005	-0.000000
7.375000	-70.408499	0.000005	-0.000000
7.400000	-70.408499	0.000005	-0.000000
7.425000	-70.408499	0.000005	-0.000000
7.450000	-70.408499	0.000005	-0.000000
7.475000	-70.408499	0.000005	-0.000000
7.500000	-70.408499	0.000005	-0.000000
7.525000	-70.408499	0.000005	-0.000000
7.550000	-70.408499	0.000005	-0.000000
7.575000	-70.408500	0.000005	-0.000000
7.600000	-70.408500	0.000005	-0.000000
7.625000	-70.408500	0.000005	-0.000000
7.650000	-70.408500	0.000005	-0.000000
7.675000	-70.408500	0.000005	-0.000000
7.700000	-70.408500	0.000005	-0.000000
7.725000	-70.408500	0.000005	-0.000000
7.750000	-70.408500	0.000005	-0.000000
7.775000	-70.408500	0.000005	-0.000000
7.800000	-70.408501	0.000005	-0.000000
7.825000	-70.408501	0.000005	-0.000000
7.850000	-70.408501	0.000005	-0.000000
7.875000	-70.408501	0.000005	-0.000000
7.900000	-70.408501	0.000005	-0.000000
7.925000	-70.408501	0.000005	-0.000000
7.950000	-70.408501	0.000005	-0.000000
7.975000	-70.408501	0.000005	-0.000000
8.000000	-70.408501	0.000005	-0.000000
8.025000	-70.408502	0.000005	-0.000000
8.050000	-70.408502	0.000005	-0.000000
8.075000	-70.408502	0.000005	-0.000000
8.100000	-70.408502	0.000005	-0.000000
8.125000	-70.408502	0.000005	-0.000000
8.150000	-70.408502	0.000005	-0.000000
8.175000	-70.408502	0.000005	-0.000000
8.200000	-70.408502	0.000005	-0.000000
8.225000	-70.408502	0.000005	-0.000000
8.250000	-70.408503	0.000005	-0.000000
8.275000	-70.408503	0.000005	-0.000000
8.300000	-70.408503	0.000005	-0.000000
8.325000	-70.408503	0.000005	-0.000000
8.350000	-70.408503	0.000005	-0.000000
8.375000	-70.408503	0.000005	-0.000000
8.400000	-70.408503	0.000005	-0.000000
8.425000	-70.408503	0.000005	-0.000000
8.450000	-70.408503	0.000005	-0.000000
8.475000	-70.408504	0.000005	-0.000000
8.500000	-70.408504	0.000005	-0.000000
8.525000	-70.408504	0.000005	-0.000000
8.550000	-70.408504	0.000005	-0.000000
8.575000	-70.408504	0.000005	-0.000000
8.600000	-70.408504	0.000005	-0.000000
8.625000	-70.408504	0.000005	-0.000000
8.650000	-70.408504	0.000005	-0.000000
8.675000	-70.408504	0.000005	-0.000000
8.700000	-70.408505	0.000005	-0.000000
8.725000	-70.408505	0.000005	-0.000000
8.750000	-70.408505	0.000005	-0.000000
8.775000	-70.408505	0.000005	-0.000000
8.800000	-70.408505	0.000005	-0.000000
8.825000	-70.408505	0.000005	-0.000000
8.850000	-70.408505	0.000005	-0.000000
8.875000	-70.408505	0.000005	-0.000000
8.900000	-70.408505	0.000005	-0.000000
8.925000	-70.408506	0.000005	-0.000000
8.950000	-70.408506	0.000005	-0.000000
8.975000	-70.408506	0.000005	-0.000000
9.000000	-70.408506	0.000005	-0.000000
9.025000	-70.408506	0.000005	-0.000000
9.050000	-70.408506	0.000005	-0.000000
9.075000	-70.408506	0.000005	-0.000000
9.100000	-70.408506	0.000005	-0.000000
9.125000	-70.408506	0.000005	-0.000000
9.150000	-70.408507	0.000005	-0.000000
9.175000	-70.408507	0.000005	-0.000000
9.200000	-70.408507	0.000005	-0.000000
9.225000	-70.408507	0.000005	-0.000000
9.250000	-70.408507	0.000005	-0.000000
9.275000	-70.408507	0.000005	-0.000000
9.300000	-70.408507	0.000005	-0.000000
9.325000	-70.408507	0.000005	-0.000000
9.350000	-70.408507	0.000005	-0.000000
9.375000	-70.408507	0.000005	-0.000000
9.400000	-70.408508	0.000005	-0.000000
9.425000	-70.408508	0.000005	-0.000000
9.450000	-70.408508	0.000005	-0.000000
9.475000	-70.408508	0.000005	-0.000000
9.500000	-70.408508	0.000005	-0.000000
9.525000	-70.408508	0.000005	-0.000000
9.550000	-70.408508	0.000005	-0.000000
9.575000	-70.408508	0.000005	-0.000000
9.600000	-70.408508	0.000005	-0.000000
9.625000	-70.408509	0.000005	-0.000000
9.650000	-70.408509	0.000005	-0.000000
9.675000	-70.408509	0.000005	-0.000000
9.700000	-70.408509	0.000005	-0.000000
9.725000	-70.408509	0.000005	-0.000000
9.750000	-70.408509	0.000005	-0.000000
9.775000	-70.408509	0.000005	-0.000000
9.800000	-70.408509	0.000005	-0.000000
9.825000	-70.408509	0.000005	-0.000000
9.850000	-70.408510	0.000005	-0.000000
9.875000	-70.408510	0.000005	-0.000000
9.900000	-70.408510	0.000005	-0.000000
9.925000	-70.408510	0.000005	-0.000000
9.950000	-70.408510	0.000005	-0.000000
9.975000	-70.408510	0.000005	-0.000000
10.000000	-70.408510	0.000005	-0.000000
10.025000	-70.408510	0.000005	-0.000000
10.050000	-70.408510	0.000005	-0.000000
10.075000	-70.408510	0.000005	-0.000000
10.100000	-70.408511	0.000005	-0.000000
10.125000	-70.408511	0.000005	-0.000000
10.150000	-70.408511	0.000005	-0.000000
10.175000	-70.408511	0.000005	-0.000000
10.200000	-70.408511	0.000005	-0.000000
10.225000	-70.408511	0.000005	-0.000000
10.250000	-70.408511	0.000005	-0.000000
10.275000	-70.408511	0.000005	-0.000000
10.300000	-70.408511	0.000005	-0.000000
10.325000	-70.408510	0.000005	-0.000000
10.350000	-70.408506	0.000005	-0.000000
10.375000	-70.408493	0.000005	-0.000000
10.400000	-70.408461	0.000005	-0.000000
10.425000	-70.408396	0.000005	-0.000000
10.450000	-70.408276	0.000005	-0.000000
10.475000	-70.408074	0.000005	-0.000000
10.500000	-70.407759	0.000005	-0.000000
10.525000	-70.407290	0.000005	-0.000000
10.550000	-70.406623	0.000005	-0.000000
10.575000	-70.405707	0.000005	-0.000000
10.600000	-70.404485	0.000005	-0.000000
10.625000	-70.402897	0.000005	-0.000000
10.650000	-70.400877	0.000005	-0.000000
10.675000	-70.398356	0.000005	-0.000000
10.700000	-70.395259	0.000005	-0.000000
10.725000	-70.391511	0.000005	-0.000000
10.750000	-70.387033	0.000005	-0.000000
10.775000	-70.381745	0.000005	-0.000000
10.800000	-70.375563	0.000005	-0.000000
10.825000	-70.368405	0.000005	-0.000000
10.850000	-70.360188	0.000005	-0.000000
10.875000	-70.350826	0.000005	-0.000000
10.900000	-70.340238	0.000005	-0.000000
10.925000	-70.328339	0.000005	-0.000000
10.950000	-70.315048	0.000005	-0.000000
10.975000	-70.300286	0.000005	-0.000000
11.000000	-70.283972	0.000005	-0.000000
11.025000	-70.266031	0.000005	-0.000000
11.050000	-70.246387	0.000005	-0.000000
11.075000	-70.224971	0.000005	-0.000000
11.100000	-70.201711	0.000005	-0.000000
11.125000	-70.176542	0.000005	-0.000000
11.150000	-70.149401	0.000005	-0.000000
11.175000	-70.120227	0.000005	-0.000000
11.200000	-70.088964	0.000005	-0.000000
11.225000	-70.055559	0.000005	-0.000000
11.250000	-70.019961	0.000005	-0.000000
11.275000	-69.982123	0.000005	-0.000000
11.300000	-69.942004	0.000005	-0.000000
11.325000	-69.899563	0.000005	-0.000000
11.350000	-69.854765	0.000005	-0.000000
11.375000	-69.807578	0.000005	-0.000000
11.400000	-69.757972	0.000005	-0.000000
11.425000	-69.705923	0.000005	-0.000000
11.450000	-69.651409	0.000005	-0.000000
11.475000	-69.594411	0.000005	-0.000000
11.500000	-69.534914	0.000005	-0.000000
11.525000	-69.472908	0.000005	-0.000000
11.550000	-69.408382	0.000005	-0.000000
11.575000	-69.341332	0.000005	-0.000000
11.600000	-69.271756	0.000005	-0.000000
11.625000	-69.199654	0.000005	-0.000000
11.650000	-69.125029	0.000005	-0.000000
11.675000	-69.047887	0.000005	-0.000000
11.700000	-68.968239	0.000005	-0.000000
11.725000	-68.886094	0.000005	-0.000000
11.750000	-68.801467	0.000005	-0.000000
11.775000	-68.714374	0.000005	-0.000000
11.800000	-68.624833	0.000005	-0.000000
11.825000	-68.532865	0.000005	-0.000000
11.850000	-68.438492	0.000005	-0.000000
11.875000	-68.341739	0.000005	-0.000000
11.900000	-68.242633	0.000005	-0.000000
11.925000	-68.141201	0.000005	-0.000000
11.950000	-68.037473	0.000005	-0.000000
11.975000	-67.931480	0.000005	-0.000000
12.000000	-67.823254	0.000005	-0.000000
12.025000	-67.712830	0.000005	-0.000000
12.050000	-67.600243	0.000005	-0.000000
12.075000	-67.485528	0.000005	-0.000000
12.100000	-67.368723	0.000005	-0.000001
12.125000	-67.249866	0.000005	-0.000001
12.150000	-67.128997	0.000005	-0.000001
12.175000	-67.006154	0.000005	-0.000001
12.200000	-66.881380	0.000005	-0.000001
12.225000	-66.754713	0.000005	-0.000001
12.250000	-66.626197	0.000005	-0.000001
12.275000	-66.495874	0.000005	-0.000001
12.300000	-66.363785	0.000005	-0.000001
12.325000	-66.229974	0.000005	-0.000001
12.350000	-66.094485	0.000005	-0.000001
12.375000	-65.957359	0.000005	-0.000001
12.400000	-65.818642	0.000005	-0.000001
12.425000	-65.678376	0.000005	-0.000001
12.450000	-65.536605	0.000005	-0.000001
12.475000	-65.393373	0.000005	-0.000001
12.500000	-65.248723	0.000005	-0.000001
12.525000	-65.102698	0.000005	-0.000002
12.550000	-64.955343	0.000005	-0.000002
12.575000	-64.806699	0.000005	-0.000002
12.600000	-64.656810	0.000005	-0.000002
12.625000	-64.505719	0.000005	-0.000002
12.650000	-64.353466	0.000005	-0.000002
12.675000	-64.200096	0.000005	-0.000002
12.700000	-64.045648	0.000005	-0.000003
