time	voltage	cai	inat
0.000000	-65.000000	0.000000	-0.000002
0.025000	-66.539572	0.000009	-0.000002
0.050000	-67.614404	0.000009	-0.000001
0.075000	-68.386307	0.000008	-0.000001
0.100000	-68.942065	0.000007	-0.000000
0.125000	-69.342534	0.000006	-0.000000
0.150000	-69.631264	0.000005	-0.000000
0.175000	-69.839645	0.000005	-0.000000
0.200000	-69.990247	0.000004	-0.000000
0.225000	-70.099260	0.000004	-0.000000
0.250000	-70.178288	0.000004	-0.000000
0.275000	-70.235670	0.000004	-0.000000
0.300000	-70.277400	0.000004	-0.000000
0.325000	-70.307791	0.000004	-0.000000
0.350000	-70.329956	0.000004	-0.000000
0.375000	-70.346143	0.000004	-0.000000
0.400000	-70.357977	0.000004	-0.000000
0.425000	-70.366640	0.000004	-0.000000
0.450000	-70.372990	0.000004	-0.000000
0.475000	-70.377652	0.000004	-0.000000
0.500000	-70.381084	0.000004	-0.000000
0.525000	-70.383617	0.000003	-0.000000
0.550000	-70.385499	0.000003	-0.000000
0.575000	-70.386908	0.000003	-0.000000
0.600000	-70.387976	0.000003	-0.000000
0.625000	-70.388800	0.000003	-0.000000
0.650000	-70.389451	0.000003	-0.000000
0.675000	-70.389982	0.000003	-0.000000
0.700000	-70.390430	0.000003	-0.000000
0.725000	-70.390824	0.000003	-0.000000
0.750000	-70.391182	0.000003	-0.000000
0.775000	-70.391519	0.000003	-0.000000
0.800000	-70.391845	0.000003	-0.000000
0.825000	-70.392167	0.000003	-0.000000
0.850000	-70.392489	0.000003	-0.000000
0.875000	-70.392813	0.000003	-0.000000
0.900000	-70.393141	0.000003	-0.000000
0.925000	-70.393473	0.000003	-0.000000
0.950000	-70.393810	0.000003	-0.000000
0.975000	-70.394150	0.000003	-0.000000
1.000000	-70.394493	0.000003	-0.000000
1.025000	-70.394838	0.000003	-0.000000
1.050000	-70.395184	0.000003	-0.000000
1.075000	-70.395528	0.000003	-0.000000
1.100000	-70.395872	0.000003	-0.000000
1.125000	-70.396212	0.000003	-0.000000
1.150000	-70.396549	0.000003	-0.000000
1.175000	-70.396881	0.000003	-0.000000
1.200000	-70.397207	0.000003	-0.000000
1.225000	-70.397527	0.000003	-0.000000
1.250000	-70.397840	0.000003	-0.000000
1.275000	-70.398145	0.000003	-0.000000
1.300000	-70.398443	0.000003	-0.000000
1.325000	-70.398732	0.000003	-0.000000
1.350000	-70.399012	0.000003	-0.000000
1.375000	-70.399283	0.000003	-0.000000
1.400000	-70.399545	0.000003	-0.000000
1.425000	-70.399798	0.000003	-0.000000
1.450000	-70.400041	0.000003	-0.000000
1.475000	-70.400275	0.000004	-0.000000
1.500000	-70.400500	0.000004	-0.000000
1.525000	-70.400715	0.000004	-0.000000
1.550000	-70.400922	0.000004	-0.000000
1.575000	-70.401119	0.000004	-0.000000
1.600000	-70.401308	0.000004	-0.000000
1.625000	-70.401488	0.000004	-0.000000
1.650000	-70.401659	0.000004	-0.000000
1.675000	-70.401822	0.000004	-0.000000
1.700000	-70.401978	0.000004	-0.000000
1.725000	-70.402125	0.000004	-0.000000
1.750000	-70.402265	0.000004	-0.000000
1.775000	-70.402398	0.000004	-0.000000
1.800000	-70.402524	0.000004	-0.000000
1.825000	-70.402643	0.000004	-0.000000
1.850000	-70.402755	0.000004	-0.000000
1.875000	-70.402861	0.000004	-0.000000
1.900000	-70.402962	0.000004	-0.000000
1.925000	-70.403056	0.000004	-0.000000
1.950000	-70.403145	0.000004	-0.000000
1.975000	-70.403229	0.000004	-0.000000
2.000000	-70.403307	0.000004	-0.000000
2.025000	-70.403381	0.000004	-0.000000
2.050000	-70.403451	0.000004	-0.000000
2.075000	-70.403515	0.000004	-0.000000
2.100000	-70.403576	0.000004	-0.000000
2.125000	-70.403633	0.000004	-0.000000
2.150000	-70.403686	0.000004	-0.000000
2.175000	-70.403735	0.000004	-0.000000
2.200000	-70.403781	0.000004	-0.000000
2.225000	-70.403824	0.000004	-0.000000
2.250000	-70.403863	0.000004	-0.000000
2.275000	-70.403864	0.000004	-0.000000
2.300000	-70.403864	0.000004	-0.000000
2.325000	-70.403864	0.000004	-0.000000
2.350000	-70.403865	0.000004	-0.000000
2.375000	-70.403865	0.000004	-0.000000
2.400000	-70.403866	0.000004	-0.000000
2.425000	-70.403866	0.000004	-0.000000
2.450000	-70.403866	0.000004	-0.000000
2.475000	-70.403866	0.000004	-0.000000
2.500000	-70.403867	0.000004	-0.000000
2.525000	-70.403867	0.000004	-0.000000
2.550000	-70.403867	0.000004	-0.000000
2.575000	-70.403867	0.000004	-0.000000
2.600000	-70.403868	0.000004	-0.000000
2.625000	-70.403868	0.000004	-0.000000
2.650000	-70.403868	0.000004	-0.000000
2.675000	-70.403868	0.000004	-0.000000
2.700000	-70.403869	0.000004	-0.000000
2.725000	-70.403869	0.000004	-0.000000
2.750000	-70.403869	0.000004	-0.000000
2.775000	-70.403869	0.000004	-0.000000
2.800000	-70.403869	0.000004	-0.000000
2.825000	-70.403870	0.000004	-0.000000
2.850000	-70.403870	0.000004	-0.000000
2.875000	-70.403870	0.000004	-0.000000
2.900000	-70.403870	0.000004	-0.000000
2.925000	-70.403870	0.000004	-0.000000
2.950000	-70.403870	0.000004	-0.000000
2.975000	-70.403871	0.000004	-0.000000
3.000000	-70.403871	0.000004	-0.000000
3.025000	-70.403871	0.000004	-0.000000
3.050000	-70.403871	0.000004	-0.000000
3.075000	-70.403871	0.000004	-0.000000
3.100000	-70.403871	0.000004	-0.000000
3.125000	-70.403872	0.000004	-0.000000
3.150000	-70.403872	0.000004	-0.000000
3.175000	-70.403872	0.000004	-0.000000
3.200000	-70.403872	0.000004	-0.000000
3.225000	-70.403872	0.000004	-0.000000
3.250000	-70.403872	0.000004	-0.000000
3.275000	-70.403873	0.000004	-0.000000
3.300000	-70.403873	0.000004	-0.000000
3.325000	-70.403873	0.000004	-0.000000
3.350000	-70.403873	0.000004	-0.000000
3.375000	-70.403873	0.000004	-0.000000
3.400000	-70.403873	0.000004	-0.000000
3.425000	-70.403873	0.000004	-0.000000
3.450000	-70.403874	0.000004	-0.000000
3.475000	-70.403874	0.000004	-0.000000
3.500000	-70.403874	0.000004	-0.000000
3.525000	-70.403874	0.000004	-0.000000
3.550000	-70.403874	0.000004	-0.000000
3.575000	-70.403874	0.000004	-0.000000
3.600000	-70.403875	0.000004	-0.000000
3.625000	-70.403875	0.000004	-0.000000
3.650000	-70.403875	0.000004	-0.000000
3.675000	-70.403875	0.000004	-0.000000
3.700000	-70.403875	0.000004	-0.000000
3.725000	-70.403875	0.000004	-0.000000
3.750000	-70.403875	0.000004	-0.000000
3.775000	-70.403876	0.000004	-0.000000
3.800000	-70.403876	0.000004	-0.000000
3.825000	-70.403876	0.000004	-0.000000
3.850000	-70.403876	0.000004	-0.000000
3.875000	-70.403876	0.000004	-0.000000
3.900000	-70.403876	0.000004	-0.000000
3.925000	-70.403876	0.000004	-0.000000
3.950000	-70.403877	0.000004	-0.000000
3.975000	-70.403877	0.000004	-0.000000
4.000000	-70.403877	0.000004	-0.000000
4.025000	-70.403877	0.000004	-0.000000
4.050000	-70.403877	0.000004	-0.000000
4.075000	-70.403877	0.000004	-0.000000
4.100000	-70.403877	0.000004	-0.000000
4.125000	-70.403877	0.000004	-0.000000
4.150000	-70.403878	0.000004	-0.000000
4.175000	-70.403878	0.000004	-0.000000
4.200000	-70.403878	0.000004	-0.000000
4.225000	-70.403878	0.000004	-0.000000
4.250000	-70.403878	0.000004	-0.000000
4.275000	-70.403878	0.000004	-0.000000
4.300000	-70.403878	0.000004	-0.000000
4.325000	-70.403879	0.000004	-0.000000
4.350000	-70.403879	0.000004	-0.000000
4.375000	-70.403879	0.000004	-0.000000
4.400000	-70.403879	0.000004	-0.000000
4.425000	-70.403879	0.000004	-0.000000
4.450000	-70.403879	0.000004	-0.000000
4.475000	-70.403879	0.000004	-0.000000
4.500000	-70.403879	0.000004	-0.000000
4.525000	-70.403880	0.000004	-0.000000
4.550000	-70.403880	0.000004	-0.000000
4.575000	-70.403880	0.000004	-0.000000
4.600000	-70.403880	0.000004	-0.000000
4.625000	-70.403880	0.000004	-0.000000
4.650000	-70.403880	0.000004	-0.000000
4.675000	-70.403880	0.000004	-0.000000
4.700000	-70.403880	0.000004	-0.000000
4.725000	-70.403881	0.000004	-0.000000
4.750000	-70.403881	0.000004	-0.000000
4.775000	-70.403881	0.000004	-0.000000
4.800000	-70.403881	0.000004	-0.000000
4.825000	-70.403881	0.000004	-0.000000
4.850000	-70.403881	0.000004	-0.000000
4.875000	-70.403881	0.000004	-0.000000
4.900000	-70.403881	0.000004	-0.000000
4.925000	-70.403882	0.000004	-0.000000
4.950000	-70.403882	0.000004	-0.000000
4.975000	-70.403882	0.000004	-0.000000
5.000000	-70.403882	0.000004	-0.000000
5.025000	-70.403882	0.000004	-0.000000
5.050000	-70.403882	0.000004	-0.000000
5.075000	-70.403882	0.000004	-0.000000
5.100000	-70.403882	0.000004	-0.000000
5.125000	-70.403883	0.000004	-0.000000
5.150000	-70.403883	0.000004	-0.000000
5.175000	-70.403883	0.000004	-0.000000
5.200000	-70.403883	0.000004	-0.000000
5.225000	-70.403883	0.000004	-0.000000
5.250000	-70.403883	0.000004	-0.000000
5.275000	-70.403883	0.000004	-0.000000
5.300000	-70.403883	0.000004	-0.000000
5.325000	-70.403884	0.000004	-0.000000
5.350000	-70.403884	0.000004	-0.000000
5.375000	-70.403884	0.000004	-0.000000
5.400000	-70.403884	0.000004	-0.000000
5.425000	-70.403884	0.000004	-0.000000
5.450000	-70.403884	0.000004	-0.000000
5.475000	-70.403884	0.000004	-0.000000
5.500000	-70.403884	0.000004	-0.000000
5.525000	-70.403885	0.000004	-0.000000
5.550000	-70.403885	0.000004	-0.000000
5.575000	-70.403885	0.000004	-0.000000
5.600000	-70.403885	0.000004	-0.000000
5.625000	-70.403885	0.000004	-0.000000
5.650000	-70.403885	0.000004	-0.000000
5.675000	-70.403885	0.000004	-0.000000
5.700000	-70.403885	0.000004	-0.000000
5.725000	-70.403885	0.000004	-0.000000
5.750000	-70.403886	0.000004	-0.000000
5.775000	-70.403886	0.000004	-0.000000
5.800000	-70.403886	0.000004	-0.000000
5.825000	-70.403886	0.000004	-0.000000
5.850000	-70.403886	0.000004	-0.000000
5.875000	-70.403886	0.000004	-0.000000
5.900000	-70.403886	0.000004	-0.000000
5.925000	-70.403886	0.000004	-0.000000
5.950000	-70.403887	0.000004	-0.000000
5.975000	-70.403887	0.000004	-0.000000
6.000000	-70.403887	0.000004	-0.000000
6.025000	-70.403887	0.000004	-0.000000
6.050000	-70.403887	0.000004	-0.000000
6.075000	-70.403887	0.000004	-0.000000
6.100000	-70.403887	0.000004	-0.000000
6.125000	-70.403887	0.000004	-0.000000
6.150000	-70.403887	0.000004	-0.000000
6.175000	-70.403888	0.000004	-0.000000
6.200000	-70.403888	0.000004	-0.000000
6.225000	-70.403888	0.000004	-0.000000
6.250000	-70.403888	0.000004	-0.000000
6.275000	-70.403888	0.000004	-0.000000
6.300000	-70.403888	0.000004	-0.000000
6.325000	-70.403888	0.000004	-0.000000
6.350000	-70.403888	0.000004	-0.000000
6.375000	-70.403889	0.000004	-0.000000
6.400000	-70.403889	0.000004	-0.000000
6.425000	-70.403889	0.000004	-0.000000
6.450000	-70.403889	0.000004	-0.000000
6.475000	-70.403889	0.000004	-0.000000
6.500000	-70.403889	0.000004	-0.000000
6.525000	-70.403889	0.000004	-0.000000
6.550000	-70.403889	0.000004	-0.000000
6.575000	-70.403889	0.000004	-0.000000
6.600000	-70.403890	0.000004	-0.000000
6.625000	-70.403890	0.000004	-0.000000
6.650000	-70.403890	0.000004	-0.000000
6.675000	-70.403890	0.000004	-0.000000
6.700000	-70.403890	0.000004	-0.000000
6.725000	-70.403890	0.000004	-0.000000
6.750000	-70.403890	0.000004	-0.000000
6.775000	-70.403890	0.000004	-0.000000
6.800000	-70.403890	0.000004	-0.000000
6.825000	-70.403891	0.000004	-0.000000
6.850000	-70.403891	0.000004	-0.000000
6.875000	-70.403891	0.000004	-0.000000
6.900000	-70.403891	0.000004	-0.000000
6.925000	-70.403891	0.000004	-0.000000
6.950000	-70.403891	0.000004	-0.000000
6.975000	-70.403891	0.000004	-0.000000
7.000000	-70.403891	0.000004	-0.000000
7.025000	-70.403892	0.000004	-0.000000
7.050000	-70.403892	0.000004	-0.000000
7.075000	-70.403892	0.000004	-0.000000
7.100000	-70.403892	0.000004	-0.000000
7.125000	-70.403892	0.000004	-0.000000
7.150000	-70.403892	0.000004	-0.000000
7.175000	-70.403892	0.000004	-0.000000
7.200000	-70.403892	0.000004	-0.000000
7.225000	-70.403892	0.000004	-0.000000
7.250000	-70.403893	0.000004	-0.000000
7.275000	-70.403893	0.000004	-0.000000
7.300000	-70.403893	0.000004	-0.000000
7.325000	-70.403893	0.000004	-0.000000
7.350000	-70.403893	0.000004	-0.000000
7.375000	-70.403893	0.000004	-0.000000
7.400000	-70.403893	0.000004	-0.000000
7.425000	-70.403893	0.000004	-0.000000
7.450000	-70.403893	0.000004	-0.000000
7.475000	-70.403894	0.000004	-0.000000
7.500000	-70.403894	0.000004	-0.000000
7.525000	-70.403894	0.000004	-0.000000
7.550000	-70.403894	0.000004	-0.000000
7.575000	-70.403894	0.000004	-0.000000
7.600000	-70.403894	0.000004	-0.000000
7.625000	-70.403894	0.000004	-0.000000
7.650000	-70.403894	0.000004	-0.000000
7.675000	-70.403894	0.000004	-0.000000
7.700000	-70.403895	0.000004	-0.000000
7.725000	-70.403895	0.000004	-0.000000
7.750000	-70.403895	0.000004	-0.000000
7.775000	-70.403895	0.000004	-0.000000
7.800000	-70.403895	0.000004	-0.000000
7.825000	-70.403895	0.000004	-0.000000
7.850000	-70.403895	0.000004	-0.000000
7.875000	-70.403895	0.000004	-0.000000
7.900000	-70.403895	0.000004	-0.000000
7.925000	-70.403896	0.000004	-0.000000
7.950000	-70.403896	0.000004	-0.000000
7.975000	-70.403896	0.000004	-0.000000
8.000000	-70.403896	0.000004	-0.000000
8.025000	-70.403896	0.000004	-0.000000
8.050000	-70.403896	0.000004	-0.000000
8.075000	-70.403896	0.000004	-0.000000
8.100000	-70.403896	0.000004	-0.000000
8.125000	-70.403896	0.000004	-0.000000
8.150000	-70.403897	0.000004	-0.000000
8.175000	-70.403897	0.000004	-0.000000
8.200000	-70.403897	0.000004	-0.000000
8.225000	-70.403897	0.000004	-0.000000
8.250000	-70.403897	0.000004	-0.000000
8.275000	-70.403897	0.000004	-0.000000
8.300000	-70.403897	0.000004	-0.000000
8.325000	-70.403897	0.000004	-0.000000
8.350000	-70.403897	0.000004	-0.000000
8.375000	-70.403898	0.000004	-0.000000
8.400000	-70.403898	0.000004	-0.000000
8.425000	-70.403898	0.000004	-0.000000
8.450000	-70.403898	0.000004	-0.000000
8.475000	-70.403898	0.000004	-0.000000
8.500000	-70.403898	0.000004	-0.000000
8.525000	-70.403898	0.000004	-0.000000
8.550000	-70.403898	0.000004	-0.000000
8.575000	-70.403898	0.000004	-0.000000
8.600000	-70.403899	0.000004	-0.000000
8.625000	-70.403899	0.000004	-0.000000
8.650000	-70.403899	0.000004	-0.000000
8.675000	-70.403899	0.000004	-0.000000
8.700000	-70.403899	0.000004	-0.000000
8.725000	-70.403899	0.000004	-0.000000
8.750000	-70.403899	0.000004	-0.000000
8.775000	-70.403899	0.000004	-0.000000
8.800000	-70.403899	0.000004	-0.000000
8.825000	-70.403900	0.000004	-0.000000
8.850000	-70.403900	0.000004	-0.000000
8.875000	-70.403900	0.000004	-0.000000
8.900000	-70.403900	0.000004	-0.000000
8.925000	-70.403900	0.000004	-0.000000
8.950000	-70.403900	0.000004	-0.000000
8.975000	-70.403900	0.000004	-0.000000
9.000000	-70.403900	0.000004	-0.000000
9.025000	-70.403900	0.000004	-0.000000
9.050000	-70.403901	0.000004	-0.000000
9.075000	-70.403901	0.000004	-0.000000
9.100000	-70.403901	0.000004	-0.000000
9.125000	-70.403901	0.000004	-0.000000
9.150000	-70.403901	0.000004	-0.000000
9.175000	-70.403901	0.000004	-0.000000
9.200000	-70.403901	0.000004	-0.000000
9.225000	-70.403901	0.000004	-0.000000
9.250000	-70.403901	0.000004	-0.000000
9.275000	-70.403901	0.000004	-0.000000
9.300000	-70.403902	0.000004	-0.000000
9.325000	-70.403902	0.000004	-0.000000
9.350000	-70.403902	0.000004	-0.000000
9.375000	-70.403902	0.000004	-0.000000
9.400000	-70.403902	0.000004	-0.000000
9.425000	-70.403902	0.000004	-0.000000
9.450000	-70.403902	0.000004	-0.000000
9.475000	-70.403902	0.000004	-0.000000
9.500000	-70.403902	0.000004	-0.000000
9.525000	-70.403903	0.000004	-0.000000
9.550000	-70.403903	0.000004	-0.000000
9.575000	-70.403903	0.000004	-0.000000
9.600000	-70.403903	0.000004	-0.000000
9.625000	-70.403903	0.000004	-0.000000
9.650000	-70.403903	0.000004	-0.000000
9.675000	-70.403903	0.000004	-0.000000
9.700000	-70.403903	0.000004	-0.000000
9.725000	-70.403903	0.000004	-0.000000
9.750000	-70.403904	0.000004	-0.000000
9.775000	-70.403904	0.000004	-0.000000
9.800000	-70.403904	0.000004	-0.000000
9.825000	-70.403904	0.000004	-0.000000
9.850000	-70.403904	0.000004	-0.000000
9.875000	-70.403904	0.000004	-0.000000
9.900000	-70.403904	0.000004	-0.000000
9.925000	-70.403904	0.000004	-0.000000
9.950000	-70.403904	0.000004	-0.000000
9.975000	-70.403905	0.000004	-0.000000
10.000000	-70.403905	0.000004	-0.000000
10.025000	-70.403905	0.000004	-0.000000
10.050000	-70.403905	0.000004	-0.000000
10.075000	-70.403905	0.000004	-0.000000
10.100000	-70.403905	0.000004	-0.000000
10.125000	-70.403905	0.000004	-0.000000
10.150000	-70.403905	0.000004	-0.000000
10.175000	-70.403905	0.000004	-0.000000
10.200000	-70.403905	0.000004	-0.000000
10.225000	-70.403906	0.000004	-0.000000
10.250000	-70.403906	0.000004	-0.000000
10.275000	-70.403906	0.000004	-0.000000
10.300000	-70.403906	0.000004	-0.000000
10.325000	-70.403905	0.000004	-0.000000
10.350000	-70.403901	0.000004	-0.000000
10.375000	-70.403888	0.000004	-0.000000
10.400000	-70.403856	0.000004	-0.000000
10.425000	-70.403790	0.000004	-0.000000
10.450000	-70.403670	0.000004	-0.000000
10.475000	-70.403469	0.000004	-0.000000
10.500000	-70.403153	0.000004	-0.000000
10.525000	-70.402684	0.000004	-0.000000
10.550000	-70.402017	0.000004	-0.000000
10.575000	-70.401101	0.000004	-0.000000
10.600000	-70.399880	0.000004	-0.000000
10.625000	-70.398292	0.000004	-0.000000
10.650000	-70.396272	0.000004	-0.000000
10.675000	-70.393751	0.000004	-0.000000
10.700000	-70.390654	0.000004	-0.000000
10.725000	-70.386907	0.000004	-0.000000
10.750000	-70.382429	0.000004	-0.000000
10.775000	-70.377141	0.000004	-0.000000
10.800000	-70.370960	0.000004	-0.000000
10.825000	-70.363802	0.000004	-0.000000
10.850000	-70.355585	0.000004	-0.000000
10.875000	-70.346225	0.000004	-0.000000
10.900000	-70.335637	0.000004	-0.000000
10.925000	-70.323739	0.000004	-0.000000
10.950000	-70.310449	0.000004	-0.000000
10.975000	-70.295687	0.000004	-0.000000
11.000000	-70.279374	0.000004	-0.000000
11.025000	-70.261434	0.000004	-0.000000
11.050000	-70.241792	0.000004	-0.000000
11.075000	-70.220377	0.000004	-0.000000
11.100000	-70.197119	0.000004	-0.000000
11.125000	-70.171951	0.000004	-0.000000
11.150000	-70.144812	0.000004	-0.000000
11.175000	-70.115640	0.000004	-0.000000
11.200000	-70.084379	0.000004	-0.000000
11.225000	-70.050976	0.000004	-0.000000
11.250000	-70.015379	0.000004	-0.000000
11.275000	-69.977545	0.000004	-0.000000
11.300000	-69.937428	0.000004	-0.000000
11.325000	-69.894989	0.000004	-0.000000
11.350000	-69.850194	0.000004	-0.000000
11.375000	-69.803010	0.000004	-0.000000
11.400000	-69.753407	0.000004	-0.000000
11.425000	-69.701361	0.000004	-0.000000
11.450000	-69.646850	0.000004	-0.000000
11.475000	-69.589855	0.000004	-0.000000
11.500000	-69.530362	0.000004	-0.000000
11.525000	-69.468359	0.000004	-0.000000
11.550000	-69.403837	0.000004	-0.000000
11.575000	-69.336792	0.000004	-0.000000
11.600000	-69.267219	0.000004	-0.000000
11.625000	-69.195121	0.000004	-0.000000
11.650000	-69.120501	0.000004	-0.000000
11.675000	-69.043364	0.000004	-0.000000
11.700000	-68.963720	0.000004	-0.000000
11.725000	-68.881579	0.000004	-0.000000
11.750000	-68.796957	0.000004	-0.000000
11.775000	-68.709869	0.000004	-0.000000
11.800000	-68.620333	0.000004	-0.000000
11.825000	-68.528370	0.000004	-0.000000
11.850000	-68.434003	0.000004	-0.000000
11.875000	-68.337255	0.000004	-0.000000
11.900000	-68.238155	0.000004	-0.000000
11.925000	-68.136728	0.000004	-0.000000
11.950000	-68.033006	0.000004	-0.000000
11.975000	-67.927018	0.000004	-0.000000
12.000000	-67.818799	0.000004	-0.000000
12.025000	-67.708381	0.000004	-0.000000
12.050000	-67.595799	0.000004	-0.000000
12.075000	-67.481091	0.000004	-0.000000
12.100000	-67.364292	0.000004	-0.000001
12.125000	-67.245442	0.000004	-0.000001
12.150000	-67.124579	0.000004	-0.000001
12.175000	-67.001743	0.000004	-0.000001
12.200000	-66.876974	0.000004	-0.000001
12.225000	-66.750315	0.000004	-0.000001
12.250000	-66.621806	0.000004	-0.000001
12.275000	-66.491489	0.000004	-0.000001
12.300000	-66.359407	0.000004	-0.000001
12.325000	-66.225604	0.000004	-0.000001
12.350000	-66.090121	0.000004	-0.000001
12.375000	-65.953003	0.000004	-0.000001
12.400000	-65.814293	0.000004	-0.000001
12.425000	-65.674034	0.000004	-0.000001
12.450000	-65.532271	0.000004	-0.000001
12.475000	-65.389046	0.000004	-0.000001
12.500000	-65.244403	0.000004	-0.000001
12.525000	-65.098387	0.000004	-0.000002
12.550000	-64.951039	0.000004	-0.000002
12.575000	-64.802403	0.000004	-0.000002
12.600000	-64.652523	0.000004	-0.000002
12.625000	-64.501439	0.000004	-0.000002
12.650000	-64.349196	0.000004	-0.000002
12.675000	-64.195833	0.000004	-0.000002
12.700000	-64.041394	0.000004	-0.000003
