time	voltage	cai	inat
0.000000	-65.000000	0.000000	-0.000002
0.025000	-66.537992	0.000010	-0.000002
0.050000	-67.613578	0.000009	-0.000001
0.075000	-68.385763	0.000007	-0.000001
0.100000	-68.941659	0.000006	-0.000000
0.125000	-69.342196	0.000005	-0.000000
0.150000	-69.630958	0.000004	-0.000000
0.175000	-69.839351	0.000004	-0.000000
0.200000	-69.989954	0.000004	-0.000000
0.225000	-70.098962	0.000003	-0.000000
0.250000	-70.177985	0.000003	-0.000000
0.275000	-70.235360	0.000003	-0.000000
0.300000	-70.277084	0.000003	-0.000000
0.325000	-70.307470	0.000003	-0.000000
0.350000	-70.329631	0.000003	-0.000000
0.375000	-70.345813	0.000003	-0.000000
0.400000	-70.357645	0.000003	-0.000000
0.425000	-70.366306	0.000003	-0.000000
0.450000	-70.372654	0.000003	-0.000000
0.475000	-70.377315	0.000003	-0.000000
0.500000	-70.380745	0.000003	-0.000000
0.525000	-70.383278	0.000003	-0.000000
0.550000	-70.385159	0.000003	-0.000000
0.575000	-70.386567	0.000003	-0.000000
0.600000	-70.387635	0.000003	-0.000000
0.625000	-70.388459	0.000003	-0.000000
0.650000	-70.389110	0.000003	-0.000000
0.675000	-70.389641	0.000003	-0.000000
0.700000	-70.390089	0.000003	-0.000000
0.725000	-70.390482	0.000003	-0.000000
0.750000	-70.390841	0.000003	-0.000000
0.775000	-70.391178	0.000003	-0.000000
0.800000	-70.391504	0.000003	-0.000000
0.825000	-70.391826	0.000003	-0.000000
0.850000	-70.392148	0.000003	-0.000000
0.875000	-70.392472	0.000003	-0.000000
0.900000	-70.392800	0.000003	-0.000000
0.925000	-70.393132	0.000003	-0.000000
0.950000	-70.393469	0.000003	-0.000000
0.975000	-70.393810	0.000003	-0.000000
1.000000	-70.394153	0.000003	-0.000000
1.025000	-70.394497	0.000003	-0.000000
1.050000	-70.394843	0.000003	-0.000000
1.075000	-70.395188	0.000003	-0.000000
1.100000	-70.395531	0.000003	-0.000000
1.125000	-70.395871	0.000003	-0.000000
1.150000	-70.396208	0.000003	-0.000000
1.175000	-70.396540	0.000003	-0.000000
1.200000	-70.396866	0.000003	-0.000000
1.225000	-70.397187	0.000003	-0.000000
1.250000	-70.397500	0.000003	-0.000000
1.275000	-70.397805	0.000003	-0.000000
1.300000	-70.398102	0.000003	-0.000000
1.325000	-70.398391	0.000003	-0.000000
1.350000	-70.398672	0.000003	-0.000000
1.375000	-70.398943	0.000003	-0.000000
1.400000	-70.399205	0.000003	-0.000000
1.425000	-70.399458	0.000003	-0.000000
1.450000	-70.399701	0.000003	-0.000000
1.475000	-70.399935	0.000003	-0.000000
1.500000	-70.400160	0.000003	-0.000000
1.525000	-70.400376	0.000003	-0.000000
1.550000	-70.400582	0.000003	-0.000000
1.575000	-70.400779	0.000003	-0.000000
1.600000	-70.400968	0.000003	-0.000000
1.625000	-70.401148	0.000003	-0.000000
1.650000	-70.401320	0.000003	-0.000000
1.675000	-70.401483	0.000003	-0.000000
1.700000	-70.401638	0.000003	-0.000000
1.725000	-70.401786	0.000003	-0.000000
1.750000	-70.401926	0.000003	-0.000000
1.775000	-70.402059	0.000003	-0.000000
1.800000	-70.402184	0.000003	-0.000000
1.825000	-70.402304	0.000003	-0.000000
1.850000	-70.402416	0.000003	-0.000000
1.875000	-70.402522	0.000003	-0.000000
1.900000	-70.402623	0.000003	-0.000000
1.925000	-70.402717	0.000003	-0.000000
1.950000	-70.402806	0.000003	-0.000000
1.975000	-70.402890	0.000003	-0.000000
2.000000	-70.402969	0.000003	-0.000000
2.025000	-70.403043	0.000003	-0.000000
2.050000	-70.403112	0.000003	-0.000000
2.075000	-70.403177	0.000003	-0.000000
2.100000	-70.403238	0.000003	-0.000000
2.125000	-70.403295	0.000003	-0.000000
2.150000	-70.403348	0.000003	-0.000000
2.175000	-70.403397	0.000003	-0.000000
2.200000	-70.403443	0.000003	-0.000000
2.225000	-70.403486	0.000003	-0.000000
2.250000	-70.403525	0.000003	-0.000000
2.275000	-70.403526	0.000003	-0.000000
2.300000	-70.403526	0.000003	-0.000000
2.325000	-70.403527	0.000003	-0.000000
2.350000	-70.403527	0.000003	-0.000000
2.375000	-70.403527	0.000003	-0.000000
2.400000	-70.403528	0.000003	-0.000000
2.425000	-70.403528	0.000003	-0.000000
2.450000	-70.403528	0.000003	-0.000000
2.475000	-70.403529	0.000003	-0.000000
2.500000	-70.403529	0.000003	-0.000000
2.525000	-70.403529	0.000003	-0.000000
2.550000	-70.403529	0.000003	-0.000000
2.575000	-70.403530	0.000003	-0.000000
2.600000	-70.403530	0.000003	-0.000000
2.625000	-70.403530	0.000003	-0.000000
2.650000	-70.403530	0.000003	-0.000000
2.675000	-70.403530	0.000003	-0.000000
2.700000	-70.403531	0.000003	-0.000000
2.725000	-70.403531	0.000003	-0.000000
2.750000	-70.403531	0.000003	-0.000000
2.775000	-70.403531	0.000003	-0.000000
2.800000	-70.403531	0.000003	-0.000000
2.825000	-70.403532	0.000003	-0.000000
2.850000	-70.403532	0.000003	-0.000000
2.875000	-70.403532	0.000003	-0.000000
2.900000	-70.403532	0.000003	-0.000000
2.925000	-70.403532	0.000003	-0.000000
2.950000	-70.403533	0.000003	-0.000000
2.975000	-70.403533	0.000003	-0.000000
3.000000	-70.403533	0.000003	-0.000000
3.025000	-70.403533	0.000003	-0.000000
3.050000	-70.403533	0.000003	-0.000000
3.075000	-70.403533	0.000003	-0.000000
3.100000	-70.403534	0.000003	-0.000000
3.125000	-70.403534	0.000003	-0.000000
3.150000	-70.403534	0.000003	-0.000000
3.175000	-70.403534	0.000003	-0.000000
3.200000	-70.403534	0.000003	-0.000000
3.225000	-70.403534	0.000003	-0.000000
3.250000	-70.403535	0.000003	-0.000000
3.275000	-70.403535	0.000003	-0.000000
3.300000	-70.403535	0.000003	-0.000000
3.325000	-70.403535	0.000003	-0.000000
3.350000	-70.403535	0.000003	-0.000000
3.375000	-70.403535	0.000003	-0.000000
3.400000	-70.403535	0.000003	-0.000000
3.425000	-70.403536	0.000003	-0.000000
3.450000	-70.403536	0.000003	-0.000000
3.475000	-70.403536	0.000003	-0.000000
3.500000	-70.403536	0.000003	-0.000000
3.525000	-70.403536	0.000003	-0.000000
3.550000	-70.403536	0.000003	-0.000000
3.575000	-70.403536	0.000003	-0.000000
3.600000	-70.403537	0.000003	-0.000000
3.625000	-70.403537	0.000003	-0.000000
3.650000	-70.403537	0.000003	-0.000000
3.675000	-70.403537	0.000003	-0.000000
3.700000	-70.403537	0.000003	-0.000000
3.725000	-70.403537	0.000003	-0.000000
3.750000	-70.403537	0.000003	-0.000000
3.775000	-70.403538	0.000003	-0.000000
3.800000	-70.403538	0.000003	-0.000000
3.825000	-70.403538	0.000003	-0.000000
3.850000	-70.403538	0.000003	-0.000000
3.875000	-70.403538	0.000003	-0.000000
3.900000	-70.403538	0.000003	-0.000000
3.925000	-70.403538	0.000003	-0.000000
3.950000	-70.403539	0.000003	-0.000000
3.975000	-70.403539	0.000003	-0.000000
4.000000	-70.403539	0.000003	-0.000000
4.025000	-70.403539	0.000003	-0.000000
4.050000	-70.403539	0.000003	-0.000000
4.075000	-70.403539	0.000003	-0.000000
4.100000	-70.403539	0.000003	-0.000000
4.125000	-70.403540	0.000003	-0.000000
4.150000	-70.403540	0.000003	-0.000000
4.175000	-70.403540	0.000003	-0.000000
4.200000	-70.403540	0.000003	-0.000000
4.225000	-70.403540	0.000003	-0.000000
4.250000	-70.403540	0.000003	-0.000000
4.275000	-70.403540	0.000003	-0.000000
4.300000	-70.403541	0.000003	-0.000000
4.325000	-70.403541	0.000003	-0.000000
4.350000	-70.403541	0.000003	-0.000000
4.375000	-70.403541	0.000003	-0.000000
4.400000	-70.403541	0.000003	-0.000000
4.425000	-70.403541	0.000003	-0.000000
4.450000	-70.403541	0.000003	-0.000000
4.475000	-70.403541	0.000003	-0.000000
4.500000	-70.403542	0.000003	-0.000000
4.525000	-70.403542	0.000003	-0.000000
4.550000	-70.403542	0.000003	-0.000000
4.575000	-70.403542	0.000003	-0.000000
4.600000	-70.403542	0.000003	-0.000000
4.625000	-70.403542	0.000003	-0.000000
4.650000	-70.403542	0.000003	-0.000000
4.675000	-70.403542	0.000003	-0.000000
4.700000	-70.403543	0.000003	-0.000000
4.725000	-70.403543	0.000003	-0.000000
4.750000	-70.403543	0.000003	-0.000000
4.775000	-70.403543	0.000003	-0.000000
4.800000	-70.403543	0.000003	-0.000000
4.825000	-70.403543	0.000003	-0.000000
4.850000	-70.403543	0.000003	-0.000000
4.875000	-70.403543	0.000003	-0.000000
4.900000	-70.403544	0.000003	-0.000000
4.925000	-70.403544	0.000003	-0.000000
4.950000	-70.403544	0.000003	-0.000000
4.975000	-70.403544	0.000003	-0.000000
5.000000	-70.403544	0.000003	-0.000000
5.025000	-70.403544	0.000003	-0.000000
5.050000	-70.403544	0.000003	-0.000000
5.075000	-70.403544	0.000003	-0.000000
5.100000	-70.403545	0.000003	-0.000000
5.125000	-70.403545	0.000003	-0.000000
5.150000	-70.403545	0.000003	-0.000000
5.175000	-70.403545	0.000003	-0.000000
5.200000	-70.403545	0.000003	-0.000000
5.225000	-70.403545	0.000003	-0.000000
5.250000	-70.403545	0.000003	-0.000000
5.275000	-70.403545	0.000003	-0.000000
5.300000	-70.403546	0.000003	-0.000000
5.325000	-70.403546	0.000003	-0.000000
5.350000	-70.403546	0.000003	-0.000000
5.375000	-70.403546	0.000003	-0.000000
5.400000	-70.403546	0.000003	-0.000000
5.425000	-70.403546	0.000003	-0.000000
5.450000	-70.403546	0.000003	-0.000000
5.475000	-70.403546	0.000003	-0.000000
5.500000	-70.403547	0.000003	-0.000000
5.525000	-70.403547	0.000003	-0.000000
5.550000	-70.403547	0.000003	-0.000000
5.575000	-70.403547	0.000003	-0.000000
5.600000	-70.403547	0.000003	-0.000000
5.625000	-70.403547	0.000003	-0.000000
5.650000	-70.403547	0.000003	-0.000000
5.675000	-70.403547	0.000003	-0.000000
5.700000	-70.403547	0.000003	-0.000000
5.725000	-70.403548	0.000003	-0.000000
5.750000	-70.403548	0.000003	-0.000000
5.775000	-70.403548	0.000003	-0.000000
5.800000	-70.403548	0.000003	-0.000000
5.825000	-70.403548	0.000003	-0.000000
5.850000	-70.403548	0.000003	-0.000000
5.875000	-70.403548	0.000003	-0.000000
5.900000	-70.403548	0.000003	-0.000000
5.925000	-70.403549	0.000003	-0.000000
5.950000	-70.403549	0.000003	-0.000000
5.975000	-70.403549	0.000003	-0.000000
6.000000	-70.403549	0.000003	-0.000000
6.025000	-70.403549	0.000003	-0.000000
6.050000	-70.403549	0.000003	-0.000000
6.075000	-70.403549	0.000003	-0.000000
6.100000	-70.403549	0.000003	-0.000000
6.125000	-70.403549	0.000003	-0.000000
6.150000	-70.403550	0.000003	-0.000000
6.175000	-70.403550	0.000003	-0.000000
6.200000	-70.403550	0.000003	-0.000000
6.225000	-70.403550	0.000003	-0.000000
6.250000	-70.403550	0.000003	-0.000000
6.275000	-70.403550	0.000003	-0.000000
6.300000	-70.403550	0.000003	-0.000000
6.325000	-70.403550	0.000003	-0.000000
6.350000	-70.403551	0.000003	-0.000000
6.375000	-70.403551	0.000003	-0.000000
6.400000	-70.403551	0.000003	-0.000000
6.425000	-70.403551	0.000003	-0.000000
6.450000	-70.403551	0.000003	-0.000000
6.475000	-70.403551	0.000003	-0.000000
6.500000	-70.403551	0.000003	-0.000000
6.525000	-70.403551	0.000003	-0.000000
6.550000	-70.403551	0.000003	-0.000000
6.575000	-70.403552	0.000003	-0.000000
6.600000	-70.403552	0.000003	-0.000000
6.625000	-70.403552	0.000003	-0.000000
6.650000	-70.403552	0.000003	-0.000000
6.675000	-70.403552	0.000003	-0.000000
6.700000	-70.403552	0.000003	-0.000000
6.725000	-70.403552	0.000003	-0.000000
6.750000	-70.403552	0.000003	-0.000000
6.775000	-70.403553	0.000003	-0.000000
6.800000	-70.403553	0.000003	-0.000000
6.825000	-70.403553	0.000003	-0.000000
6.850000	-70.403553	0.000003	-0.000000
6.875000	-70.403553	0.000003	-0.000000
6.900000	-70.403553	0.000003	-0.000000
6.925000	-70.403553	0.000003	-0.000000
6.950000	-70.403553	0.000003	-0.000000
6.975000	-70.403553	0.000003	-0.000000
7.000000	-70.403554	0.000003	-0.000000
7.025000	-70.403554	0.000003	-0.000000
7.050000	-70.403554	0.000003	-0.000000
7.075000	-70.403554	0.000003	-0.000000
7.100000	-70.403554	0.000003	-0.000000
7.125000	-70.403554	0.000003	-0.000000
7.150000	-70.403554	0.000003	-0.000000
7.175000	-70.403554	0.000003	-0.000000
7.200000	-70.403554	0.000003	-0.000000
7.225000	-70.403555	0.000003	-0.000000
7.250000	-70.403555	0.000003	-0.000000
7.275000	-70.403555	0.000003	-0.000000
7.300000	-70.403555	0.000003	-0.000000
7.325000	-70.403555	0.000003	-0.000000
7.350000	-70.403555	0.000003	-0.000000
7.375000	-70.403555	0.000003	-0.000000
7.400000	-70.403555	0.000003	-0.000000
7.425000	-70.403555	0.000003	-0.000000
7.450000	-70.403556	0.000003	-0.000000
7.475000	-70.403556	0.000003	-0.000000
7.500000	-70.403556	0.000003	-0.000000
7.525000	-70.403556	0.000003	-0.000000
7.550000	-70.403556	0.000003	-0.000000
7.575000	-70.403556	0.000003	-0.000000
7.600000	-70.403556	0.000003	-0.000000
7.625000	-70.403556	0.000003	-0.000000
7.650000	-70.403556	0.000003	-0.000000
7.675000	-70.403557	0.000003	-0.000000
7.700000	-70.403557	0.000003	-0.000000
7.725000	-70.403557	0.000003	-0.000000
7.750000	-70.403557	0.000003	-0.000000
7.775000	-70.403557	0.000003	-0.000000
7.800000	-70.403557	0.000003	-0.000000
7.825000	-70.403557	0.000003	-0.000000
7.850000	-70.403557	0.000003	-0.000000
7.875000	-70.403557	0.000003	-0.000000
7.900000	-70.403558	0.000003	-0.000000
7.925000	-70.403558	0.000003	-0.000000
7.950000	-70.403558	0.000003	-0.000000
7.975000	-70.403558	0.000003	-0.000000
8.000000	-70.403558	0.000003	-0.000000
8.025000	-70.403558	0.000003	-0.000000
8.050000	-70.403558	0.000003	-0.000000
8.075000	-70.403558	0.000003	-0.000000
8.100000	-70.403558	0.000003	-0.000000
8.125000	-70.403559	0.000003	-0.000000
8.150000	-70.403559	0.000003	-0.000000
8.175000	-70.403559	0.000003	-0.000000
8.200000	-70.403559	0.000003	-0.000000
8.225000	-70.403559	0.000003	-0.000000
8.250000	-70.403559	0.000003	-0.000000
8.275000	-70.403559	0.000003	-0.000000
8.300000	-70.403559	0.000003	-0.000000
8.325000	-70.403559	0.000003	-0.000000
8.350000	-70.403560	0.000003	-0.000000
8.375000	-70.403560	0.000003	-0.000000
8.400000	-70.403560	0.000003	-0.000000
8.425000	-70.403560	0.000003	-0.000000
8.450000	-70.403560	0.000003	-0.000000
8.475000	-70.403560	0.000003	-0.000000
8.500000	-70.403560	0.000003	-0.000000
8.525000	-70.403560	0.000003	-0.000000
8.550000	-70.403560	0.000003	-0.000000
8.575000	-70.403561	0.000003	-0.000000
8.600000	-70.403561	0.000003	-0.000000
8.625000	-70.403561	0.000003	-0.000000
8.650000	-70.403561	0.000003	-0.000000
8.675000	-70.403561	0.000003	-0.000000
8.700000	-70.403561	0.000003	-0.000000
8.725000	-70.403561	0.000003	-0.000000
8.750000	-70.403561	0.000003	-0.000000
8.775000	-70.403561	0.000003	-0.000000
8.800000	-70.403562	0.000003	-0.000000
8.825000	-70.403562	0.000003	-0.000000
8.850000	-70.403562	0.000003	-0.000000
8.875000	-70.403562	0.000003	-0.000000
8.900000	-70.403562	0.000003	-0.000000
8.925000	-70.403562	0.000003	-0.000000
8.950000	-70.403562	0.000003	-0.000000
8.975000	-70.403562	0.000003	-0.000000
9.000000	-70.403562	0.000003	-0.000000
9.025000	-70.403563	0.000003	-0.000000
9.050000	-70.403563	0.000003	-0.000000
9.075000	-70.403563	0.000003	-0.000000
9.100000	-70.403563	0.000003	-0.000000
9.125000	-70.403563	0.000003	-0.000000
9.150000	-70.403563	0.000003	-0.000000
9.175000	-70.403563	0.000003	-0.000000
9.200000	-70.403563	0.000003	-0.000000
9.225000	-70.403563	0.000003	-0.000000
9.250000	-70.403564	0.000003	-0.000000
9.275000	-70.403564	0.000003	-0.000000
9.300000	-70.403564	0.000003	-0.000000
9.325000	-70.403564	0.000003	-0.000000
9.350000	-70.403564	0.000003	-0.000000
9.375000	-70.403564	0.000003	-0.000000
9.400000	-70.403564	0.000003	-0.000000
9.425000	-70.403564	0.000003	-0.000000
9.450000	-70.403564	0.000003	-0.000000
9.475000	-70.403565	0.000003	-0.000000
9.500000	-70.403565	0.000003	-0.000000
9.525000	-70.403565	0.000003	-0.000000
9.550000	-70.403565	0.000003	-0.000000
9.575000	-70.403565	0.000003	-0.000000
9.600000	-70.403565	0.000003	-0.000000
9.625000	-70.403565	0.000003	-0.000000
9.650000	-70.403565	0.000003	-0.000000
9.675000	-70.403565	0.000003	-0.000000
9.700000	-70.403565	0.000003	-0.000000
9.725000	-70.403566	0.000003	-0.000000
9.750000	-70.403566	0.000003	-0.000000
9.775000	-70.403566	0.000003	-0.000000
9.800000	-70.403566	0.000003	-0.000000
9.825000	-70.403566	0.000003	-0.000000
9.850000	-70.403566	0.000003	-0.000000
9.875000	-70.403566	0.000003	-0.000000
9.900000	-70.403566	0.000003	-0.000000
9.925000	-70.403566	0.000003	-0.000000
9.950000	-70.403567	0.000003	-0.000000
9.975000	-70.403567	0.000003	-0.000000
10.000000	-70.403567	0.000003	-0.000000
10.025000	-70.403567	0.000003	-0.000000
10.050000	-70.403567	0.000003	-0.000000
10.075000	-70.403567	0.000003	-0.000000
10.100000	-70.403567	0.000003	-0.000000
10.125000	-70.403567	0.000003	-0.000000
10.150000	-70.403567	0.000003	-0.000000
10.175000	-70.403568	0.000003	-0.000000
10.200000	-70.403568	0.000003	-0.000000
10.225000	-70.403568	0.000003	-0.000000
10.250000	-70.403568	0.000003	-0.000000
10.275000	-70.403568	0.000003	-0.000000
10.300000	-70.403568	0.000003	-0.000000
10.325000	-70.403567	0.000003	-0.000000
10.350000	-70.403563	0.000003	-0.000000
10.375000	-70.403550	0.000003	-0.000000
10.400000	-70.403518	0.000003	-0.000000
10.425000	-70.403452	0.000003	-0.000000
10.450000	-70.403332	0.000003	-0.000000
10.475000	-70.403131	0.000003	-0.000000
10.500000	-70.402815	0.000003	-0.000000
10.525000	-70.402347	0.000003	-0.000000
10.550000	-70.401680	0.000003	-0.000000
10.575000	-70.400764	0.000003	-0.000000
10.600000	-70.399542	0.000003	-0.000000
10.625000	-70.397954	0.000003	-0.000000
10.650000	-70.395935	0.000003	-0.000000
10.675000	-70.393413	0.000003	-0.000000
10.700000	-70.390317	0.000003	-0.000000
10.725000	-70.386569	0.000003	-0.000000
10.750000	-70.382091	0.000003	-0.000000
10.775000	-70.376803	0.000003	-0.000000
10.800000	-70.370622	0.000003	-0.000000
10.825000	-70.363465	0.000003	-0.000000
10.850000	-70.355248	0.000003	-0.000000
10.875000	-70.345887	0.000003	-0.000000
10.900000	-70.335299	0.000003	-0.000000
10.925000	-70.323401	0.000003	-0.000000
10.950000	-70.310112	0.000003	-0.000000
10.975000	-70.295350	0.000003	-0.000000
11.000000	-70.279037	0.000003	-0.000000
11.025000	-70.261097	0.000003	-0.000000
11.050000	-70.241455	0.000003	-0.000000
11.075000	-70.220040	0.000003	-0.000000
11.100000	-70.196782	0.000003	-0.000000
11.125000	-70.171615	0.000003	-0.000000
11.150000	-70.144476	0.000003	-0.000000
11.175000	-70.115304	0.000003	-0.000000
11.200000	-70.084043	0.000003	-0.000000
11.225000	-70.050640	0.000003	-0.000000
11.250000	-70.015044	0.000003	-0.000000
11.275000	-69.977209	0.000003	-0.000000
11.300000	-69.937093	0.000003	-0.000000
11.325000	-69.894655	0.000003	-0.000000
11.350000	-69.849860	0.000003	-0.000000
11.375000	-69.802675	0.000003	-0.000000
11.400000	-69.753073	0.000003	-0.000000
11.425000	-69.701027	0.000003	-0.000000
11.450000	-69.646517	0.000003	-0.000000
11.475000	-69.589522	0.000003	-0.000000
11.500000	-69.530030	0.000003	-0.000000
11.525000	-69.468027	0.000003	-0.000000
11.550000	-69.403506	0.000003	-0.000000
11.575000	-69.336461	0.000003	-0.000000
11.600000	-69.266889	0.000003	-0.000000
11.625000	-69.194791	0.000003	-0.000000
11.650000	-69.120171	0.000003	-0.000000
11.675000	-69.043035	0.000003	-0.000000
11.700000	-68.963391	0.000003	-0.000000
11.725000	-68.881252	0.000003	-0.000000
11.750000	-68.796630	0.000003	-0.000000
11.775000	-68.709543	0.000003	-0.000000
11.800000	-68.620008	0.000003	-0.000000
11.825000	-68.528046	0.000003	-0.000000
11.850000	-68.433679	0.000003	-0.000000
11.875000	-68.336933	0.000003	-0.000000
11.900000	-68.237833	0.000003	-0.000000
11.925000	-68.136407	0.000003	-0.000000
11.950000	-68.032686	0.000003	-0.000000
11.975000	-67.926700	0.000003	-0.000000
12.000000	-67.818482	0.000003	-0.000000
12.025000	-67.708065	0.000003	-0.000000
12.050000	-67.595485	0.000003	-0.000000
12.075000	-67.480778	0.000003	-0.000000
12.100000	-67.363981	0.000003	-0.000001
12.125000	-67.245132	0.000003	-0.000001
12.150000	-67.124271	0.000003	-0.000001
12.175000	-67.001437	0.000003	-0.000001
12.200000	-66.876670	0.000003	-0.000001
12.225000	-66.750013	0.000003	-0.000001
12.250000	-66.621506	0.000003	-0.000001
12.275000	-66.491192	0.000003	-0.000001
12.300000	-66.359113	0.000003	-0.000001
12.325000	-66.225312	0.000003	-0.000001
12.350000	-66.089832	0.000003	-0.000001
12.375000	-65.952717	0.000003	-0.000001
12.400000	-65.814010	0.000003	-0.000001
12.425000	-65.673755	0.000003	-0.000001
12.450000	-65.531995	0.000003	-0.000001
12.475000	-65.388775	0.000003	-0.000001
12.500000	-65.244137	0.000003	-0.000001
12.525000	-65.098124	0.000003	-0.000002
12.550000	-64.950782	0.000003	-0.000002
12.575000	-64.802151	0.000003	-0.000002
12.600000	-64.652276	0.000003	-0.000002
12.625000	-64.501199	0.000003	-0.000002
12.650000	-64.348962	0.000003	-0.000002
12.675000	-64.195606	0.000003	-0.000002
12.700000	-64.041175	0.000003	-0.000003
